start,0,1,2,3,4,5,6,7,8,9,10,11
0.0,0.104,0.075,0.016,0.004,0.015,0.123,1.0,0.069,0.008,0.038,0.007,0.009
0.31229,1.0,0.59,0.148,0.104,0.164,0.394,0.768,0.303,0.23,0.591,0.307,0.23
0.52884,0.183,0.142,0.094,0.072,0.047,0.204,1.0,0.118,0.187,0.37,0.09,0.147
0.98009,1.0,0.887,0.209,0.049,0.096,0.61,0.875,0.126,0.057,0.446,0.222,0.225
1.17211,0.339,0.268,0.05,0.021,0.042,0.348,1.0,0.139,0.028,0.288,0.062,0.111
1.39873,0.111,0.148,0.096,0.033,0.038,0.194,1.0,0.271,0.217,0.433,0.178,0.115
1.77655,0.306,0.215,0.044,0.014,0.051,0.254,1.0,0.183,0.145,0.304,0.078,0.075
2.06045,0.174,0.152,0.013,0.012,0.036,0.301,0.596,0.054,0.204,1.0,0.331,0.046
2.27361,0.071,0.078,0.038,0.017,0.036,0.168,1.0,0.087,0.032,0.338,0.053,0.024
2.65986,0.205,0.196,0.031,0.031,0.051,0.138,0.555,0.125,0.357,1.0,0.48,0.046
2.91438,0.265,0.283,0.163,0.167,0.277,0.413,1.0,0.269,0.184,0.667,0.402,0.212
3.0341,0.194,0.173,0.137,0.074,0.072,0.081,0.804,0.124,0.126,1.0,0.141,0.114
3.53669,0.342,0.304,0.137,0.127,0.283,0.317,0.779,0.133,0.237,1.0,0.326,0.01
3.68839,0.376,0.079,0.02,0.023,0.238,0.439,1.0,0.406,0.143,0.516,0.308,0.026
3.79637,0.987,0.58,0.212,0.312,0.232,0.292,0.33,0.144,0.298,1.0,0.548,0.558
4.01116,0.573,0.08,0.054,0.064,0.091,0.058,0.244,0.228,0.841,1.0,0.919,0.111
4.17506,0.413,0.197,0.082,0.125,0.296,0.121,0.11,0.161,0.097,1.0,0.269,0.23
4.4473,0.706,0.213,0.069,0.067,0.358,0.215,0.543,0.533,0.696,1.0,0.267,0.046
4.62168,0.507,0.189,0.032,0.045,0.501,0.061,0.041,0.061,0.238,1.0,0.328,0.153
4.83778,0.332,0.169,0.032,0.042,1.0,0.066,0.024,0.018,0.258,0.857,0.135,0.093
5.06721,0.854,1.0,0.407,0.085,0.415,0.065,0.029,0.02,0.061,0.301,0.469,0.288
5.30939,0.742,0.93,0.296,0.058,0.487,0.05,0.04,0.033,0.296,1.0,0.272,0.164
5.52712,0.179,0.116,0.046,0.017,0.172,0.024,0.018,0.017,0.269,1.0,0.367,0.206
5.73732,0.716,0.291,0.049,0.057,0.941,0.057,0.124,0.064,0.344,0.459,0.285,1.0
5.9605,0.497,0.414,0.142,0.057,1.0,0.098,0.195,0.05,0.419,0.443,0.391,0.915
6.17293,0.595,0.259,0.05,0.074,0.568,0.038,0.146,0.034,0.625,0.799,0.64,1.0
6.38626,0.106,0.092,0.076,0.048,0.297,0.05,0.098,0.072,0.306,0.156,0.157,1.0
6.81456,0.852,1.0,0.475,0.094,0.418,0.058,0.066,0.02,0.191,0.291,0.702,0.889
7.03184,0.524,0.422,0.159,0.089,0.549,0.049,0.175,0.025,0.292,0.079,0.112,1.0
7.25066,0.193,0.19,0.037,0.076,0.181,0.061,0.065,0.155,0.179,0.786,1.0,0.129
7.70902,1.0,0.819,0.034,0.111,0.624,0.217,0.308,0.147,0.145,0.629,0.182,0.212
7.91247,1.0,0.873,0.605,0.669,0.591,0.389,0.353,0.351,0.555,0.752,0.489,0.151
8.02023,0.814,1.0,0.368,0.318,0.604,0.328,0.221,0.218,0.549,0.808,0.582,0.084
8.12893,1.0,0.627,0.04,0.036,0.648,0.092,0.068,0.016,0.055,0.815,0.12,0.173
8.35964,0.595,1.0,0.291,0.133,0.509,0.096,0.105,0.104,0.123,0.572,0.47,0.312
8.85451,0.841,0.82,0.167,0.047,0.4,0.109,0.222,0.164,0.2,1.0,0.277,0.158
9.42839,0.212,0.194,0.418,0.087,0.135,0.077,1.0,0.093,0.207,0.892,0.276,0.152
10.07188,0.39,0.256,0.949,0.061,0.162,0.11,1.0,0.087,0.037,0.444,0.085,0.106
10.30984,1.0,0.841,0.459,0.061,0.11,0.06,0.232,0.02,0.029,0.589,0.415,0.248
10.64249,1.0,0.925,0.268,0.144,0.091,0.117,0.367,0.109,0.176,0.257,0.572,0.046
10.75633,1.0,0.633,0.355,0.16,0.106,0.161,0.307,0.203,0.182,0.435,0.235,0.892
10.95329,0.091,0.092,0.117,0.107,0.178,0.09,0.217,0.334,0.182,1.0,0.232,0.167
11.60417,1.0,0.344,0.059,0.076,0.518,0.083,0.113,0.05,0.04,0.518,0.125,0.248
11.82948,0.192,0.147,0.017,0.059,1.0,0.103,0.075,0.029,0.033,0.322,0.077,0.1
12.07964,0.348,1.0,0.251,0.18,0.975,0.191,0.096,0.128,0.108,0.468,0.477,0.355
12.49492,0.698,0.604,0.144,0.067,0.927,0.121,0.064,0.038,0.279,1.0,0.332,0.258
12.70689,0.41,0.418,0.071,0.031,1.0,0.058,0.038,0.015,0.287,0.135,0.035,0.15
13.0254,0.258,0.194,0.093,0.239,1.0,0.18,0.027,0.04,0.244,0.1,0.062,0.046
13.12535,0.487,0.324,0.021,0.086,0.925,0.059,0.015,0.05,1.0,0.965,0.467,0.105
13.34073,0.329,0.313,0.198,0.098,1.0,0.116,0.081,0.089,0.801,0.353,0.121,0.297
13.75791,0.936,1.0,0.131,0.163,0.35,0.146,0.101,0.103,0.234,0.102,0.187,0.289
13.91537,1.0,0.917,0.345,0.08,0.687,0.069,0.013,0.028,0.291,0.309,0.309,0.372
14.11864,0.573,0.472,0.27,0.465,1.0,0.279,0.084,0.099,0.236,0.116,0.145,0.13
14.2161,0.103,0.075,0.063,0.198,0.139,0.037,0.092,0.101,0.16,0.875,1.0,0.117
14.64549,0.495,0.212,0.166,0.246,0.285,0.214,0.916,0.214,0.198,1.0,0.356,0.39
14.87029,0.087,0.091,0.075,0.055,0.069,0.117,1.0,0.12,0.269,0.807,0.188,0.079
15.2766,0.498,0.714,0.152,0.112,0.222,0.104,1.0,0.158,0.212,0.942,0.358,0.181
16.26376,0.031,0.027,0.023,0.055,0.073,0.025,0.066,0.324,1.0,0.08,0.032,0.137
16.70222,0.289,0.18,0.105,0.288,0.776,0.378,0.881,0.809,1.0,0.897,0.559,0.392
16.81714,0.158,0.069,0.059,0.143,0.128,0.024,0.079,0.702,1.0,0.094,0.044,0.272
17.02059,0.305,0.471,0.14,0.081,0.176,0.043,0.052,0.139,1.0,0.18,0.256,0.208
17.71374,0.95,0.7,0.337,0.385,0.374,0.233,0.123,0.385,0.901,0.74,0.357,1.0
17.92685,1.0,0.382,0.096,0.335,0.556,0.104,0.152,0.138,0.131,0.129,0.181,0.75
18.13188,1.0,0.437,0.081,0.095,0.575,0.098,0.113,0.111,0.362,0.925,0.443,0.242
18.34639,0.815,0.225,0.053,0.053,0.337,0.161,0.357,0.356,0.877,1.0,0.572,0.051
18.52934,1.0,0.257,0.063,0.131,0.483,0.105,0.076,0.073,0.091,0.825,0.237,0.331
18.77982,0.513,0.544,0.283,0.134,0.426,0.092,0.091,0.094,0.114,1.0,0.493,0.391
19.23737,0.342,0.284,0.143,0.064,0.355,0.037,0.02,0.022,0.25,1.0,0.43,0.37
19.42748,0.765,0.272,0.074,0.034,0.62,0.07,0.121,0.036,0.15,0.665,0.087,1.0
19.76485,1.0,0.536,0.038,0.064,0.089,0.042,0.173,0.162,0.591,0.592,0.987,0.143
19.87093,0.162,0.027,0.012,0.02,0.076,0.019,0.046,0.037,0.053,0.163,0.248,1.0
20.29488,0.569,0.008,0.009,0.014,0.185,0.016,0.041,0.009,0.011,0.013,0.017,1.0
20.51478,0.592,0.011,0.003,0.014,0.165,0.015,0.039,0.007,0.009,0.014,0.016,1.0
20.75093,0.311,0.228,0.029,0.021,0.151,0.019,0.078,0.023,0.02,0.091,0.32,1.0
21.18748,0.116,0.124,0.051,0.087,0.288,0.065,0.093,0.123,0.117,0.797,1.0,0.252
21.65764,0.175,0.318,0.129,0.071,0.477,0.12,0.155,0.133,0.179,1.0,0.156,0.184
22.73342,0.331,0.801,0.255,0.113,1.0,0.154,0.048,0.051,0.598,0.644,0.094,0.059
22.93655,0.36,1.0,0.697,0.196,0.848,0.214,0.251,0.137,0.55,0.94,0.3,0.201
23.34104,0.326,0.621,0.817,0.096,0.407,0.077,0.15,0.04,0.127,1.0,0.163,0.109
23.57501,0.8,0.573,0.534,0.098,0.135,0.042,0.053,0.052,0.277,1.0,0.373,0.131
23.7766,0.281,0.291,1.0,0.114,0.273,0.082,0.262,0.065,0.088,0.839,0.178,0.283
24.23546,1.0,0.93,0.572,0.049,0.121,0.033,0.042,0.016,0.038,0.308,0.483,0.376
24.51433,0.891,1.0,0.297,0.065,0.244,0.044,0.056,0.025,0.053,0.171,0.175,0.129
24.6712,0.121,0.111,0.084,0.093,0.105,0.066,0.052,0.095,0.077,0.773,1.0,0.118
25.11234,0.739,0.195,0.12,0.108,0.222,0.127,0.616,0.593,0.916,1.0,0.473,0.048
25.28245,0.733,0.284,0.115,0.08,0.26,0.084,0.06,0.029,0.332,1.0,0.71,0.263
25.50762,0.841,0.115,0.225,0.086,0.334,0.142,0.483,0.454,0.89,1.0,0.67,0.215
25.68068,0.948,0.281,1.0,0.194,0.772,0.226,0.415,0.18,0.125,0.771,0.411,0.43
25.95959,1.0,0.992,0.532,0.075,0.257,0.068,0.052,0.017,0.026,0.551,0.633,0.313
26.17442,0.677,0.591,0.382,0.131,0.265,0.127,0.14,0.172,0.457,1.0,0.484,0.307
26.6112,0.94,0.683,1.0,0.169,0.431,0.058,0.114,0.06,0.1,0.627,0.438,0.364
26.83029,1.0,0.551,0.485,0.13,0.145,0.026,0.114,0.025,0.032,0.373,0.175,0.357
27.03973,1.0,0.437,0.93,0.101,0.232,0.113,0.201,0.074,0.189,0.519,0.148,0.084
27.22535,0.216,0.198,1.0,0.115,0.157,0.099,0.094,0.054,0.086,0.381,0.141,0.314
27.65537,0.814,1.0,0.506,0.09,0.162,0.056,0.04,0.028,0.037,0.311,0.644,0.364
27.92939,1.0,0.884,0.193,0.03,0.124,0.025,0.05,0.016,0.009,0.078,0.258,0.045
28.11256,0.093,0.08,0.072,0.191,0.125,0.046,0.049,0.085,0.089,0.863,1.0,0.112
28.57247,0.129,0.098,0.152,0.027,0.105,0.043,0.475,0.468,0.984,1.0,0.59,0.09
28.74204,0.215,0.12,0.157,0.037,0.092,0.041,0.432,0.433,0.932,1.0,0.687,0.052
28.89138,0.049,0.069,0.289,0.061,0.101,0.045,0.096,0.069,0.224,1.0,0.178,0.094
29.41596,0.299,0.242,0.457,0.148,0.367,0.169,0.505,0.455,0.682,1.0,0.507,0.15
29.55324,0.089,0.107,0.126,0.07,0.091,0.152,0.173,0.219,0.519,1.0,0.423,0.208
30.10676,0.5,0.169,0.052,0.163,0.285,0.079,0.065,0.07,0.19,1.0,0.222,0.671
30.30957,0.022,0.019,0.02,0.027,0.082,0.022,0.039,0.038,0.111,1.0,0.265,0.051
30.85633,0.453,0.164,0.085,0.086,0.434,0.081,0.049,0.075,0.326,1.0,0.114,0.159
31.13719,0.915,0.761,0.519,0.426,0.313,0.266,0.329,0.66,1.0,0.606,0.546,0.135
31.23252,1.0,0.593,0.044,0.062,0.167,0.073,0.245,0.196,0.615,0.691,0.806,0.289
31.40068,0.054,0.031,0.014,0.019,0.072,0.025,0.03,0.017,0.033,0.232,0.14,1.0
32.4771,0.633,0.051,0.012,0.012,0.058,0.008,0.021,0.005,0.005,0.009,0.024,1.0
32.68961,0.624,0.048,0.009,0.009,0.042,0.007,0.029,0.004,0.007,0.024,0.057,1.0
32.93179,0.797,0.32,0.117,0.014,0.039,0.011,0.023,0.008,0.007,0.104,0.223,1.0
33.13057,0.324,0.353,0.167,0.037,0.207,0.044,0.055,0.018,0.017,0.071,0.207,1.0
33.34703,0.772,1.0,0.579,0.175,0.252,0.225,0.193,0.463,0.245,0.62,0.356,0.884
33.5829,0.957,0.402,0.363,0.364,0.275,0.269,1.0,0.999,0.972,0.971,0.879,0.768
33.67247,1.0,0.428,0.176,0.141,0.13,0.272,0.571,0.473,0.351,0.379,0.555,0.723
33.99601,0.634,0.751,0.317,0.098,0.153,0.051,0.073,0.055,0.197,1.0,0.212,0.113
34.23438,0.57,0.78,0.32,0.305,0.303,0.224,0.35,0.412,0.588,1.0,0.481,0.177
34.33628,0.392,1.0,0.287,0.103,0.325,0.1,0.139,0.135,0.327,0.758,0.27,0.192
34.83451,0.807,1.0,0.176,0.18,0.291,0.086,0.134,0.158,0.729,0.737,0.235,0.148
34.97546,0.665,0.862,0.609,0.135,0.181,0.117,0.143,0.195,0.372,1.0,0.358,0.378
35.37687,0.43,0.924,1.0,0.147,0.044,0.038,0.117,0.059,0.101,0.232,0.05,0.512
35.60177,0.719,0.727,1.0,0.281,0.062,0.046,0.14,0.081,0.175,0.212,0.174,0.241
35.71896,0.099,0.435,1.0,0.067,0.026,0.013,0.037,0.024,0.047,0.324,0.091,0.098
36.04948,0.128,0.201,1.0,0.049,0.022,0.012,0.061,0.018,0.017,0.292,0.033,0.047
36.41424,0.448,0.585,1.0,0.097,0.048,0.022,0.035,0.011,0.019,0.405,0.249,0.149
36.71002,0.6,0.755,1.0,0.361,0.128,0.113,0.246,0.172,0.255,0.348,0.5,0.396
36.78571,0.544,1.0,0.261,0.173,0.331,0.338,0.123,0.049,0.431,0.496,0.292,0.121
36.96127,0.989,0.75,0.214,0.171,0.22,0.231,0.49,0.483,0.913,0.903,1.0,0.012
37.06485,1.0,0.745,0.487,0.373,0.287,0.279,0.831,0.832,0.876,0.825,0.794,0.705
37.12948,0.701,0.504,0.635,0.142,0.127,0.099,0.452,0.434,0.916,1.0,0.443,0.086
37.2966,1.0,0.797,0.993,0.459,0.627,0.325,0.241,0.088,0.136,0.338,0.132,0.167
37.49465,0.194,0.258,0.483,0.143,1.0,0.101,0.115,0.125,0.194,0.408,0.179,0.263
37.91719,0.255,0.549,0.114,0.114,1.0,0.07,0.034,0.049,0.093,0.203,0.11,0.254
38.24308,0.168,0.757,0.348,0.197,1.0,0.216,0.064,0.114,0.12,0.285,0.559,0.203
38.5883,0.28,0.781,0.313,0.376,1.0,0.269,0.039,0.017,0.218,0.561,0.098,0.177
38.81302,0.026,0.075,0.093,0.251,1.0,0.137,0.067,0.034,0.072,0.218,0.034,0.042
39.44508,0.097,0.139,0.042,0.255,1.0,0.057,0.022,0.014,0.048,0.129,0.075,0.07
40.33061,0.377,0.265,0.066,0.066,0.146,0.115,0.447,0.396,1.0,0.986,0.979,0.052
40.50571,0.851,0.979,0.558,0.752,0.526,0.464,1.0,0.245,0.164,0.457,0.272,0.722
40.74404,0.473,0.617,0.414,0.376,0.398,0.23,1.0,0.243,0.315,0.7,0.6,0.902
40.94726,0.502,0.667,0.369,0.086,0.163,0.598,1.0,0.161,0.256,0.866,0.333,0.152
41.15751,0.16,0.528,0.325,0.059,0.079,0.266,1.0,0.165,0.031,0.135,0.074,0.37
41.39615,0.329,0.568,0.248,0.026,0.146,0.231,1.0,0.214,0.086,0.585,0.122,0.32
41.61442,1.0,0.816,0.154,0.053,0.099,0.387,0.77,0.18,0.174,0.934,0.388,0.269
42.0561,0.506,0.682,0.392,0.041,0.068,0.041,0.204,0.409,1.0,0.85,0.341,0.266
42.2663,0.124,0.109,0.084,0.046,0.083,0.026,0.049,0.415,1.0,0.119,0.022,0.151
42.4985,0.149,0.185,0.164,0.06,0.151,0.032,0.065,0.459,1.0,0.15,0.107,0.276
42.70626,0.245,0.345,0.214,0.098,0.166,0.038,0.076,0.122,1.0,0.452,0.259,0.165
42.92762,0.398,0.603,0.581,0.584,0.497,0.474,0.9,0.889,1.0,0.955,0.378,0.384
43.01805,0.1,0.136,0.048,0.066,0.318,0.286,0.668,0.733,1.0,0.749,0.358,0.026
43.14381,0.096,0.108,0.073,0.091,0.325,0.289,0.576,0.608,1.0,0.657,0.277,0.035
43.26422,0.385,0.242,0.133,0.152,0.102,0.046,0.057,0.371,1.0,0.173,0.25,0.259
43.80413,0.168,0.279,0.084,0.146,0.17,0.093,0.042,0.094,0.296,0.998,1.0,0.251
44.24154,0.833,0.621,0.313,0.067,0.167,0.079,0.093,0.13,0.386,1.0,0.299,0.414
44.44218,0.288,0.204,0.115,0.034,0.094,0.024,0.022,0.029,0.264,1.0,0.318,0.12
44.6624,0.505,0.453,0.242,0.042,0.187,0.032,0.02,0.028,0.27,1.0,0.315,0.181
44.86222,0.409,0.254,0.16,0.037,0.131,0.033,0.04,0.028,0.279,1.0,0.186,0.104
45.10794,0.702,0.419,0.395,0.392,0.209,0.197,0.232,0.23,0.725,0.799,1.0,0.486
45.19778,0.736,0.545,0.029,0.047,0.14,0.064,0.176,0.174,0.404,1.0,0.577,0.032
45.34726,0.331,0.601,0.561,0.559,0.325,0.248,0.6,0.6,0.86,1.0,0.374,0.153
45.43542,0.52,0.609,0.329,0.12,0.315,0.083,0.071,0.078,0.218,1.0,0.326,0.759
45.76517,1.0,0.352,0.162,0.062,0.187,0.033,0.06,0.058,0.203,0.281,0.77,0.354
45.94104,1.0,0.688,0.501,0.218,0.133,0.093,0.683,0.672,0.778,0.773,0.997,0.883
46.03247,0.931,0.337,0.393,0.06,0.07,0.04,0.084,0.069,0.519,0.614,1.0,0.074
46.1624,0.895,0.15,0.3,0.048,0.087,0.02,0.035,0.024,0.358,0.475,1.0,0.178
46.31941,1.0,0.513,0.678,0.391,0.159,0.13,0.751,0.738,0.727,0.764,0.954,0.948
46.40141,0.065,0.156,0.163,0.016,0.038,0.008,0.028,0.011,0.019,0.051,0.128,1.0
47.02485,0.594,1.0,0.422,0.048,0.184,0.04,0.042,0.014,0.028,0.123,0.119,0.658
47.23465,0.406,1.0,0.635,0.129,0.14,0.126,0.153,0.253,0.132,0.339,0.227,0.738
47.49202,0.446,0.269,0.367,0.063,0.103,0.043,0.192,0.169,0.917,1.0,0.871,0.172
47.65946,0.678,1.0,0.857,0.093,0.323,0.159,0.22,0.107,0.067,0.19,0.106,0.269
47.89719,0.537,1.0,0.447,0.094,0.26,0.082,0.105,0.081,0.173,0.567,0.259,0.309
49.23365,0.691,1.0,0.87,0.664,0.188,0.173,0.147,0.125,0.124,0.156,0.592,0.695
49.32417,0.891,0.844,1.0,0.194,0.184,0.114,0.218,0.23,0.354,0.373,0.1,0.289
49.57986,0.59,0.186,1.0,0.228,0.094,0.069,0.226,0.142,0.338,0.906,0.445,0.86
49.85891,0.86,1.0,0.91,0.703,0.739,0.701,0.523,0.428,0.36,0.384,0.326,0.679
49.92857,0.482,1.0,0.635,0.067,0.083,0.093,0.232,0.084,0.036,0.205,0.266,0.538
50.09161,0.638,0.737,1.0,0.231,0.231,0.19,0.221,0.079,0.088,0.45,0.484,0.559
50.70599,0.504,0.983,0.566,0.158,1.0,0.197,0.124,0.245,0.076,0.344,0.201,0.304
51.06576,0.479,0.31,0.23,0.152,1.0,0.256,0.048,0.053,0.069,0.275,0.125,0.29
51.33955,0.412,0.346,0.207,0.148,1.0,0.134,0.043,0.033,0.165,0.481,0.516,0.226
51.58177,0.63,0.751,0.801,1.0,0.939,0.641,0.351,0.349,0.369,0.449,0.196,0.421
51.66757,0.146,0.288,0.133,0.274,1.0,0.133,0.033,0.014,0.026,0.077,0.121,0.262
51.96644,0.268,0.361,0.168,0.196,1.0,0.11,0.038,0.04,0.058,0.15,0.257,0.339
52.30898,0.662,0.503,0.178,0.25,1.0,0.189,0.026,0.02,0.071,0.163,0.167,0.427
52.49488,0.094,0.11,0.104,0.156,1.0,0.075,0.055,0.038,0.078,0.064,0.069,0.299
53.31828,0.071,0.143,0.053,0.328,1.0,0.201,0.021,0.013,0.073,0.036,0.024,0.175
53.78263,0.634,1.0,0.311,0.38,0.866,0.301,0.052,0.041,0.177,0.04,0.092,0.547
53.95764,0.76,1.0,0.281,0.376,0.63,0.36,0.188,0.177,0.091,0.063,0.215,0.275
54.07578,0.674,0.967,0.346,0.402,1.0,0.399,0.111,0.103,0.063,0.022,0.148,0.24
54.23506,0.175,0.892,0.789,0.776,1.0,0.873,0.201,0.19,0.036,0.018,0.021,0.13
54.41537,0.239,0.196,0.271,0.359,1.0,0.289,0.037,0.022,0.05,0.091,0.07,0.321
54.71841,0.058,0.171,0.198,0.384,1.0,0.249,0.031,0.021,0.062,0.124,0.059,0.115
55.24145,0.569,1.0,0.801,0.812,0.994,0.861,0.338,0.336,0.045,0.023,0.114,0.249
55.37909,0.302,0.421,0.319,0.38,1.0,0.274,0.08,0.076,0.2,0.122,0.294,0.726
55.59995,0.689,0.526,0.121,0.107,0.448,0.064,0.057,0.017,0.037,0.137,0.233,1.0
55.8395,0.344,0.448,0.381,0.422,0.546,0.405,0.217,0.205,0.107,0.06,0.125,1.0
55.95492,0.431,0.389,0.281,0.183,0.272,0.25,0.325,0.112,0.178,0.336,0.239,1.0
56.15152,0.288,0.328,0.322,0.326,0.294,0.397,0.944,0.206,0.058,0.157,0.153,1.0
56.36014,0.233,0.298,0.283,0.119,0.292,0.551,1.0,0.385,0.291,0.272,0.111,0.433
56.54662,0.172,0.43,0.238,0.198,0.498,0.419,0.869,0.71,0.694,1.0,0.376,0.182
56.69175,0.273,0.582,0.408,0.298,0.691,0.678,1.0,0.646,0.429,0.941,0.363,0.305
56.83705,0.346,0.958,0.454,0.049,0.185,0.175,0.525,0.134,0.182,1.0,0.31,0.439
57.04195,0.295,0.756,0.3,0.163,0.832,0.631,0.98,0.532,0.524,1.0,0.37,0.135
57.20934,0.915,1.0,0.181,0.07,0.17,0.085,0.688,0.074,0.059,0.546,0.484,0.371
57.55751,0.667,1.0,0.391,0.178,0.373,0.287,0.662,0.375,0.405,0.636,0.387,0.131
57.68358,0.411,1.0,0.492,0.122,0.147,0.175,0.376,0.17,0.201,0.762,0.35,0.343
57.92839,0.646,0.518,0.15,0.179,0.467,0.428,0.801,0.784,0.994,1.0,0.902,0.043
58.02218,0.216,0.315,0.17,0.224,0.637,0.549,1.0,0.967,0.934,0.894,0.39,0.128
58.13737,0.636,0.723,0.12,0.163,0.612,0.389,0.821,0.796,1.0,0.822,0.599,0.248
58.27002,1.0,0.753,0.125,0.208,0.384,0.173,0.278,0.373,0.861,0.581,0.741,0.666
58.36304,0.126,0.148,0.089,0.112,0.205,0.022,0.059,0.303,1.0,0.57,0.197,0.233
58.56195,0.902,1.0,0.093,0.204,0.373,0.147,0.319,0.328,0.813,0.358,0.493,0.5
58.71002,0.111,0.254,0.187,0.225,0.234,0.024,0.072,0.211,1.0,0.156,0.062,0.192
59.01882,0.312,0.389,0.091,0.2,0.16,0.044,0.064,0.245,1.0,0.238,0.147,0.163
59.43188,0.648,0.82,0.549,0.635,0.446,0.148,0.514,0.471,0.59,1.0,0.511,0.847
59.6351,0.323,0.539,0.247,0.345,0.182,0.224,1.0,0.278,0.235,0.428,0.217,0.197
59.88948,0.185,0.34,0.096,0.108,0.123,0.289,1.0,0.364,0.306,0.252,0.158,0.238
60.09905,0.449,0.549,0.283,0.097,0.087,0.198,0.84,0.126,0.268,1.0,0.228,0.24
60.30281,0.377,1.0,0.311,0.055,0.065,0.1,0.474,0.086,0.167,0.386,0.103,0.406
60.52753,0.249,1.0,0.153,0.039,0.1,0.163,0.693,0.11,0.152,0.664,0.111,0.107
60.75429,0.607,1.0,0.215,0.037,0.105,0.12,0.448,0.123,0.121,0.856,0.405,0.44
60.97732,0.691,1.0,0.288,0.021,0.086,0.233,0.778,0.198,0.134,0.265,0.085,0.415
61.19066,0.276,1.0,0.189,0.015,0.028,0.21,0.641,0.223,0.085,0.36,0.124,0.139
61.39288,0.271,1.0,0.097,0.033,0.054,0.161,0.683,0.1,0.09,0.365,0.068,0.088
61.83959,0.482,0.626,0.185,0.182,0.656,0.628,1.0,0.724,0.383,0.578,0.138,0.115
62.00281,0.362,0.605,0.059,0.056,0.225,0.225,1.0,0.271,0.171,0.29,0.286,0.136
62.18304,0.106,0.28,0.091,0.033,0.037,0.116,1.0,0.087,0.099,0.3,0.051,0.056
62.45673,0.499,0.641,0.116,0.282,0.817,0.263,0.448,0.217,0.487,1.0,0.378,0.413
62.93129,0.183,0.322,1.0,0.622,0.158,0.228,0.391,0.149,0.296,0.753,0.687,0.688
63.30331,0.938,1.0,0.331,0.271,0.257,0.267,0.387,0.319,0.395,0.417,0.565,0.458
63.41429,1.0,0.941,0.386,0.333,0.256,0.254,0.31,0.253,0.381,0.425,0.64,0.988
63.53601,0.222,0.514,1.0,0.281,0.104,0.107,0.154,0.065,0.153,0.215,0.218,0.825
63.9537,0.916,0.322,0.51,0.201,0.121,0.153,0.705,0.37,0.585,0.728,0.597,1.0
64.11075,0.647,1.0,0.942,0.296,0.167,0.168,0.288,0.095,0.094,0.173,0.208,0.613
64.30771,0.785,1.0,0.491,0.172,0.079,0.032,0.126,0.076,0.05,0.225,0.29,0.633
64.52875,0.883,0.886,1.0,0.732,0.315,0.333,0.26,0.104,0.11,0.295,0.156,0.725
64.67311,0.251,0.588,1.0,0.176,0.077,0.09,0.246,0.092,0.182,0.58,0.274,0.629
65.10698,0.663,1.0,0.344,0.099,0.026,0.079,0.167,0.033,0.033,0.184,0.129,0.44
65.31129,0.134,0.585,1.0,0.263,0.049,0.038,0.137,0.028,0.047,0.159,0.054,0.21
65.72853,0.836,1.0,0.578,0.476,0.495,0.433,0.232,0.186,0.163,0.177,0.245,0.154
65.7985,0.611,0.805,1.0,0.548,0.352,0.203,0.249,0.086,0.266,0.567,0.135,0.22
65.90961,0.491,1.0,0.743,0.173,0.137,0.041,0.126,0.042,0.122,0.905,0.281,0.253
66.13746,0.438,0.803,0.423,0.114,0.112,0.024,0.099,0.038,0.084,1.0,0.091,0.105
66.41034,0.352,0.266,0.876,0.672,1.0,0.137,0.303,0.155,0.647,0.688,0.313,0.539
67.04834,0.329,0.318,0.124,0.468,0.699,0.229,0.186,0.103,1.0,0.273,0.086,0.353
67.27302,0.103,0.192,0.184,0.274,1.0,0.342,0.125,0.096,0.5,0.072,0.058,0.17
67.48336,0.366,0.186,0.035,0.46,1.0,0.311,0.104,0.093,0.653,0.082,0.063,0.221
67.7073,0.482,0.242,0.661,0.657,1.0,0.23,0.276,0.183,0.327,0.156,0.172,0.45
68.05923,0.549,1.0,0.821,0.856,0.815,0.278,0.243,0.247,0.584,0.707,0.569,0.462
68.35787,0.528,0.354,0.13,0.261,0.461,0.206,0.174,0.126,0.148,0.133,0.386,1.0
68.47569,0.663,0.6,0.204,0.477,1.0,0.57,0.488,0.379,0.49,0.372,0.443,0.6
68.58599,0.246,0.202,0.106,0.443,0.924,0.361,0.102,0.044,0.234,0.204,0.184,1.0
69.0156,0.663,1.0,0.828,0.792,0.797,0.788,0.346,0.312,0.301,0.28,0.259,0.34
69.0981,0.375,1.0,0.109,0.156,0.496,0.153,0.071,0.046,0.184,0.028,0.035,0.324
69.30481,0.353,1.0,0.302,0.261,0.843,0.189,0.067,0.071,0.157,0.196,0.295,0.396
69.61283,0.069,0.364,0.08,0.229,1.0,0.117,0.031,0.012,0.141,0.035,0.077,0.123
69.89329,0.173,0.205,0.862,0.434,0.188,0.379,0.752,0.162,0.367,1.0,0.797,0.662
70.31574,0.759,0.923,0.741,0.759,1.0,0.928,0.755,0.732,0.468,0.797,0.211,0.288
70.41574,0.524,0.442,0.216,0.353,0.428,0.267,0.702,0.235,0.134,1.0,0.184,0.418
70.65075,0.432,0.546,0.279,0.27,0.8,0.738,0.681,0.595,0.303,1.0,0.349,0.058
70.7976,0.321,0.556,0.133,0.114,0.156,0.101,0.558,0.084,0.229,1.0,0.137,0.263
71.15619,0.368,0.49,0.336,0.55,0.337,0.302,0.331,0.128,0.306,1.0,0.756,0.341
71.3551,0.104,0.295,0.166,0.146,0.134,0.115,0.387,0.117,0.264,1.0,0.207,0.172
72.05846,0.176,0.277,0.084,0.061,0.089,0.228,0.903,0.152,0.282,1.0,0.201,0.19
72.27977,0.246,0.151,0.027,0.029,0.19,0.149,0.109,0.094,0.114,1.0,0.151,0.102
72.46531,0.555,1.0,0.339,0.597,0.646,0.29,0.502,0.41,0.587,0.633,0.201,0.47
72.70177,0.242,0.361,0.243,0.345,0.494,0.462,0.552,0.703,1.0,0.645,0.291,0.095
72.80649,0.325,0.268,0.134,0.317,1.0,0.295,0.588,0.238,0.406,0.123,0.168,0.411
73.30621,0.283,0.642,1.0,0.552,0.388,0.28,0.621,0.238,0.284,0.487,0.362,0.322
73.75791,0.377,1.0,0.484,0.461,0.183,0.195,0.39,0.05,0.146,0.124,0.089,0.079
73.94317,0.132,0.531,1.0,0.263,0.08,0.1,0.631,0.111,0.079,0.353,0.134,0.2
74.67302,0.685,1.0,0.326,0.281,0.154,0.059,0.113,0.026,0.016,0.101,0.076,0.216
74.85995,0.612,1.0,0.352,0.055,0.069,0.04,0.245,0.049,0.075,0.396,0.156,0.315
75.09261,0.671,1.0,0.423,0.399,0.22,0.282,0.433,0.232,0.314,0.434,0.182,0.141
75.22168,0.919,1.0,0.438,0.386,0.382,0.357,0.422,0.347,0.305,0.384,0.359,0.179
75.32975,0.123,0.993,1.0,0.223,0.059,0.054,0.14,0.035,0.096,0.184,0.049,0.108
75.76054,0.487,1.0,0.493,0.146,0.063,0.097,0.156,0.034,0.039,0.111,0.06,0.137
75.9756,0.779,1.0,0.677,0.63,0.431,0.547,0.315,0.09,0.096,0.108,0.344,0.378
76.06771,0.563,1.0,0.822,0.218,0.075,0.13,0.368,0.032,0.024,0.072,0.043,0.127
76.26621,0.339,1.0,0.605,0.176,0.083,0.052,0.373,0.1,0.118,0.212,0.144,0.162
76.54499,0.479,1.0,0.266,0.05,0.077,0.038,0.079,0.023,0.044,0.221,0.063,0.182
76.84068,1.0,0.408,0.176,0.157,0.226,0.191,0.168,0.133,0.133,0.162,0.441,0.381
77.0229,0.883,0.142,0.104,0.067,0.054,0.068,0.397,0.209,0.517,0.559,1.0,0.454
77.19383,1.0,0.21,0.136,0.032,0.074,0.076,0.33,0.208,0.296,0.325,0.968,0.671
77.37397,0.245,0.191,0.142,0.13,0.129,0.062,0.175,0.045,0.095,0.202,0.197,1.0
77.80422,0.383,0.085,0.103,0.04,0.032,0.024,0.097,0.032,0.02,0.036,0.092,1.0
78.08426,0.524,0.348,0.421,0.266,0.152,0.058,0.204,0.106,0.115,0.256,0.442,1.0
78.29234,1.0,0.213,0.063,0.031,0.057,0.039,0.113,0.032,0.281,0.298,0.926,0.351
78.45986,0.33,0.162,0.116,0.098,0.058,0.067,0.209,0.049,0.041,0.252,0.365,1.0
78.97728,0.875,0.299,0.104,0.035,0.031,0.018,0.188,0.098,0.513,0.524,1.0,0.179
79.11007,0.269,0.08,0.115,0.02,0.018,0.016,0.072,0.011,0.03,0.078,0.078,1.0
79.45329,0.932,1.0,0.22,0.046,0.08,0.034,0.053,0.12,0.335,0.129,0.04,0.4
79.66354,0.896,1.0,0.115,0.076,0.097,0.067,0.04,0.119,0.308,0.221,0.032,0.302
79.86181,1.0,0.882,0.34,0.312,0.166,0.088,0.035,0.031,0.188,0.421,0.348,0.157
80.00571,0.65,1.0,0.184,0.057,0.323,0.075,0.031,0.048,0.106,0.6,0.144,0.3
80.30766,0.674,1.0,0.072,0.065,0.143,0.08,0.08,0.087,0.234,0.182,0.287,0.076
80.44023,0.377,1.0,0.779,0.322,0.532,0.129,0.103,0.103,0.596,0.253,0.19,0.502
80.63723,0.291,0.254,0.17,0.224,1.0,0.212,0.086,0.074,0.401,0.173,0.07,0.343
80.9556,0.147,0.179,0.087,0.4,1.0,0.101,0.105,0.158,0.535,0.277,0.155,0.232
81.62404,0.661,1.0,0.422,0.446,0.709,0.583,0.111,0.129,0.268,0.19,0.038,0.284
81.80939,0.337,0.491,0.139,0.299,1.0,0.405,0.051,0.113,0.622,0.208,0.212,0.366
82.04027,0.536,1.0,0.431,0.155,0.3,0.177,0.177,0.327,0.637,0.284,0.194,0.253
82.42762,0.299,1.0,0.462,0.097,0.093,0.093,0.142,0.171,0.576,0.149,0.093,0.114
82.92857,0.442,1.0,0.233,0.026,0.124,0.086,0.583,0.098,0.135,0.064,0.058,0.074
83.3649,0.955,1.0,0.514,0.571,0.474,0.227,0.051,0.034,0.062,0.02,0.105,0.038
83.51433,0.746,1.0,0.134,0.049,0.281,0.064,0.05,0.03,0.057,0.011,0.028,0.074
83.75474,0.233,0.287,0.786,0.6,0.441,0.782,1.0,0.164,0.263,0.742,0.72,0.511
84.21361,0.408,0.26,0.133,0.134,0.354,0.467,1.0,0.554,0.104,0.136,0.257,0.583
84.42698,0.658,1.0,0.324,0.639,0.673,0.511,0.631,0.27,0.344,0.563,0.363,0.225
84.64644,0.114,0.419,0.232,0.225,0.229,0.32,1.0,0.191,0.039,0.318,0.069,0.149
84.89229,0.445,0.364,0.085,0.054,0.166,0.589,1.0,0.221,0.047,0.379,0.092,0.308
85.0878,0.317,0.33,0.327,0.315,0.086,0.333,1.0,0.245,0.183,0.326,0.166,0.139
85.46834,0.694,0.839,1.0,0.841,0.261,0.164,0.677,0.165,0.148,0.145,0.068,0.532
85.75342,0.777,0.8,0.55,0.227,0.123,0.284,0.741,0.129,0.116,0.643,0.358,1.0
85.94884,0.476,0.321,0.169,0.206,0.196,0.471,0.948,0.184,0.22,1.0,0.211,0.483
86.14689,0.616,1.0,0.352,0.082,0.121,0.135,0.649,0.088,0.27,0.653,0.243,0.431
86.39546,0.287,1.0,0.334,0.032,0.066,0.272,0.819,0.157,0.089,0.502,0.135,0.134
86.61601,0.487,0.931,0.28,0.042,0.053,0.112,0.562,0.081,0.201,1.0,0.174,0.436
86.82045,0.915,1.0,0.235,0.164,0.17,0.185,0.417,0.151,0.163,0.21,0.485,0.535
86.92907,0.926,1.0,0.221,0.12,0.231,0.3,0.763,0.243,0.173,0.244,0.503,0.076
87.0463,0.779,0.819,0.318,0.266,0.62,0.623,1.0,0.442,0.153,0.198,0.196,0.258
87.22567,0.411,0.554,0.117,0.046,0.05,0.233,1.0,0.139,0.131,0.306,0.117,0.177
87.70036,0.186,1.0,0.121,0.053,0.234,0.247,0.271,0.237,0.088,0.079,0.076,0.036
87.88571,0.526,1.0,0.425,0.253,0.246,0.351,0.946,0.27,0.291,0.495,0.295,0.39
88.07356,0.221,0.55,0.114,0.051,0.057,0.155,1.0,0.099,0.085,0.24,0.082,0.146
88.74032,0.943,1.0,0.286,0.248,0.458,0.204,0.466,0.082,0.193,0.668,0.192,0.55
88.96177,0.525,1.0,0.164,0.168,0.147,0.114,0.067,0.022,0.067,0.137,0.151,0.108
89.1449,0.576,1.0,0.713,0.366,0.183,0.069,0.363,0.076,0.042,0.178,0.182,0.627
89.34336,0.295,0.392,0.329,0.072,0.052,0.072,0.242,0.037,0.113,0.153,0.152,1.0
89.65147,1.0,0.686,0.718,0.584,0.195,0.227,0.241,0.185,0.437,0.553,0.319,0.715
89.81669,0.809,1.0,0.522,0.425,0.237,0.212,0.398,0.283,0.653,0.755,0.713,0.791
89.9829,0.858,0.512,0.965,0.463,0.192,0.18,0.571,0.153,0.155,0.584,0.496,1.0
90.76122,0.204,0.607,1.0,0.185,0.058,0.064,0.386,0.082,0.137,0.382,0.229,0.985
91.18558,0.662,0.766,0.575,0.312,0.145,0.151,0.331,0.112,0.066,0.255,0.172,1.0
91.30172,0.421,1.0,0.648,0.129,0.07,0.049,0.315,0.057,0.069,0.366,0.153,0.8
91.63116,0.162,0.625,1.0,0.228,0.048,0.024,0.131,0.025,0.068,0.321,0.087,0.188
92.06703,0.409,0.903,0.735,0.112,0.127,0.094,0.35,0.096,0.174,1.0,0.31,0.477
92.46721,0.535,1.0,0.318,0.256,0.342,0.325,0.17,0.17,0.301,0.208,0.344,0.086
92.64304,0.618,1.0,0.452,0.466,0.555,0.516,0.366,0.38,0.856,0.73,0.71,0.253
92.79964,0.202,0.484,0.183,0.413,1.0,0.164,0.207,0.256,0.653,0.58,0.282,0.29
93.76222,0.377,0.42,0.297,0.577,1.0,0.185,0.106,0.176,0.459,0.409,0.28,0.367
94.17973,0.22,0.14,0.095,0.166,1.0,0.153,0.098,0.08,0.214,0.233,0.127,0.44
94.88272,0.417,0.985,1.0,0.325,0.399,0.233,0.087,0.08,0.593,0.344,0.132,0.388
95.09714,0.678,1.0,0.671,0.471,0.421,0.427,0.113,0.101,0.06,0.036,0.203,0.471
95.16662,0.23,1.0,0.451,0.434,0.553,0.458,0.152,0.158,0.118,0.062,0.082,0.117
95.32349,0.199,0.473,0.313,0.505,1.0,0.318,0.038,0.051,0.119,0.12,0.185,0.201
95.76014,0.397,0.722,0.201,0.424,1.0,0.19,0.081,0.072,0.227,0.095,0.107,0.451
95.98009,0.2,0.172,0.34,0.162,0.191,0.324,1.0,0.11,0.169,0.833,0.226,0.271
96.58236,0.141,0.448,0.116,0.21,0.148,0.268,0.844,0.155,0.476,1.0,0.194,0.168
97.40227,0.669,0.396,0.229,0.191,0.19,0.168,0.358,0.257,0.29,1.0,0.332,0.264
97.93438,0.072,0.223,0.041,0.039,0.069,0.166,0.503,0.086,0.206,1.0,0.122,0.143
98.32535,0.171,0.233,0.068,0.029,0.068,0.178,0.534,0.084,0.166,1.0,0.14,0.156
98.58617,0.273,0.956,0.157,0.256,0.382,0.31,0.314,0.331,0.762,1.0,0.327,0.131
98.73179,0.338,0.409,0.079,0.228,0.145,0.1,0.148,0.219,1.0,0.423,0.211,0.091
98.82961,0.551,1.0,0.74,0.932,0.554,0.53,0.307,0.432,0.644,0.176,0.361,0.325
98.90544,0.154,0.43,0.088,0.339,0.274,0.153,0.221,0.29,1.0,0.353,0.103,0.067
99.01088,0.447,0.89,0.138,0.327,1.0,0.413,0.794,0.27,0.67,0.314,0.201,0.542
99.4449,0.107,0.267,1.0,0.288,0.091,0.146,0.369,0.077,0.205,0.321,0.314,0.211
99.8859,0.224,0.661,1.0,0.312,0.241,0.165,0.83,0.169,0.19,0.611,0.309,0.22
100.762,1.0,0.913,0.704,0.493,0.156,0.181,0.223,0.099,0.181,0.234,0.09,0.119
100.93619,0.602,1.0,0.789,0.624,0.241,0.26,0.228,0.093,0.105,0.108,0.043,0.085
101.10005,0.513,1.0,0.694,0.317,0.189,0.169,0.365,0.14,0.183,0.556,0.417,0.208
101.38517,0.702,1.0,0.579,0.356,0.118,0.14,0.31,0.287,0.48,0.47,0.786,0.488
101.47737,0.369,1.0,0.423,0.041,0.021,0.069,0.145,0.044,0.068,0.084,0.037,0.164
101.8371,0.333,1.0,0.264,0.033,0.03,0.116,0.148,0.018,0.02,0.07,0.037,0.09
102.13968,0.673,1.0,0.741,0.678,0.53,0.732,0.65,0.155,0.164,0.172,0.184,0.167
102.22041,0.222,0.675,1.0,0.096,0.058,0.053,0.217,0.047,0.065,0.291,0.189,0.155
102.93465,0.731,1.0,0.187,0.162,0.128,0.105,0.154,0.108,0.237,0.278,0.432,0.42
103.11542,0.25,0.417,0.746,0.569,0.143,0.137,0.325,0.05,0.054,0.18,0.22,1.0
103.31642,0.473,0.166,0.206,0.068,0.045,0.13,0.347,0.098,0.113,0.122,0.081,1.0
103.59043,0.199,0.109,0.1,0.152,0.057,0.092,0.201,0.035,0.14,0.256,0.342,1.0
103.9858,1.0,0.367,0.102,0.086,0.043,0.055,0.328,0.121,0.274,0.327,0.759,0.615
104.12417,0.346,0.162,0.126,0.2,0.09,0.102,0.184,0.064,0.099,0.183,0.329,1.0
104.50136,0.234,0.238,0.199,0.111,0.053,0.074,0.343,0.058,0.089,0.295,0.215,1.0
105.32594,1.0,0.431,0.156,0.086,0.035,0.051,0.235,0.085,0.203,0.258,0.517,0.554
105.44771,0.966,0.896,0.44,0.16,0.114,0.109,0.32,0.047,0.147,0.198,0.147,1.0
105.65034,0.931,1.0,0.91,0.773,0.337,0.201,0.32,0.084,0.211,0.389,0.16,0.165
105.80286,0.737,1.0,0.205,0.077,0.315,0.061,0.299,0.073,0.118,0.517,0.077,0.372
106.0224,0.724,1.0,0.186,0.123,0.379,0.175,0.384,0.111,0.208,0.691,0.4,0.706
106.41279,0.195,0.311,0.737,0.869,1.0,0.45,0.198,0.136,0.66,0.657,0.616,0.589
106.84073,0.307,0.293,0.062,0.406,1.0,0.303,0.089,0.162,0.495,0.269,0.217,0.538
107.05274,0.564,0.875,0.223,0.246,0.537,0.289,0.111,0.244,1.0,0.458,0.316,0.127
107.23451,0.1,0.175,0.123,0.298,1.0,0.113,0.042,0.119,0.762,0.348,0.141,0.269
107.65415,0.555,0.405,0.07,0.772,1.0,0.194,0.049,0.143,0.369,0.199,0.199,0.516
107.90825,0.76,0.392,0.132,0.129,1.0,0.237,0.089,0.178,0.693,0.237,0.159,0.41
108.14798,0.186,0.524,0.212,0.265,0.389,0.105,0.119,0.341,1.0,0.374,0.151,0.354
108.43161,0.897,1.0,0.739,0.737,0.21,0.182,0.093,0.196,0.701,0.205,0.053,0.078
108.57737,0.794,1.0,0.094,0.039,0.079,0.04,0.03,0.098,0.264,0.077,0.039,0.114
108.78626,0.616,1.0,0.098,0.062,0.161,0.093,0.51,0.114,0.453,0.147,0.06,0.259
109.1171,0.654,1.0,0.063,0.034,0.121,0.077,0.204,0.05,0.097,0.022,0.025,0.13
109.45361,0.662,1.0,0.057,0.072,0.492,0.072,0.073,0.016,0.068,0.031,0.082,0.089
109.78413,0.708,1.0,0.602,0.368,0.313,0.196,0.103,0.087,0.133,0.044,0.169,0.119
109.88989,0.229,0.521,0.783,0.316,0.276,0.443,1.0,0.188,0.375,0.857,0.658,0.584
110.3244,0.758,1.0,0.395,0.407,0.53,0.633,0.506,0.647,0.217,0.268,0.379,0.126
110.42494,0.557,0.789,0.329,0.479,0.533,0.669,1.0,0.29,0.273,0.495,0.35,0.467
110.74204,0.486,1.0,0.065,0.058,0.277,0.344,0.46,0.184,0.22,0.273,0.226,0.091
110.91642,0.72,1.0,0.557,0.063,0.245,0.499,0.659,0.232,0.093,0.37,0.161,0.735
111.16571,0.288,0.721,0.344,0.576,1.0,0.579,0.518,0.156,0.176,0.507,0.654,0.715
111.37152,0.592,1.0,0.62,0.54,0.715,0.374,0.549,0.205,0.088,0.391,0.187,0.736
111.60113,1.0,0.893,0.249,0.325,0.311,0.159,0.113,0.052,0.176,0.416,0.14,0.592
111.81569,0.63,0.512,0.125,0.117,0.382,0.347,0.761,0.724,0.968,1.0,0.895,0.066
111.91528,0.682,1.0,0.097,0.075,0.392,0.249,0.318,0.269,0.269,0.356,0.346,0.088
112.02045,0.256,0.423,0.203,0.117,0.444,0.192,0.174,0.22,0.686,1.0,0.307,0.646
112.24803,0.339,0.69,0.392,0.058,0.583,0.12,0.135,0.105,0.292,1.0,0.259,0.221
112.48086,0.311,0.47,0.022,0.021,0.187,0.127,0.661,0.66,0.952,1.0,0.496,0.044
112.65034,0.154,1.0,0.496,0.047,0.11,0.043,0.032,0.047,0.181,0.985,0.165,0.085
112.91542,0.467,1.0,0.472,0.085,0.368,0.118,0.053,0.121,0.104,0.412,0.23,0.698
113.1341,0.429,0.933,0.404,0.111,0.507,0.078,0.056,0.107,0.32,1.0,0.305,0.36
113.34068,1.0,0.794,0.469,0.576,0.475,0.152,0.096,0.1,0.252,0.287,0.083,0.875
113.55265,0.608,0.985,0.278,0.268,1.0,0.724,0.97,0.971,0.782,1.0,0.29,0.143
113.64998,0.198,0.263,0.08,0.113,0.501,0.356,0.727,0.73,0.939,1.0,0.642,0.019
113.75465,0.363,0.657,0.437,0.105,1.0,0.133,0.035,0.039,0.249,0.89,0.197,0.607
113.98789,0.248,1.0,0.624,0.106,0.879,0.07,0.02,0.073,0.372,0.568,0.133,0.183
114.21265,0.378,1.0,0.051,0.065,0.426,0.116,0.361,0.369,0.257,0.332,0.079,0.099
114.3858,0.155,1.0,0.487,0.064,0.521,0.033,0.01,0.047,0.08,0.503,0.094,0.116
114.65565,0.186,0.628,0.149,0.132,0.189,0.112,0.501,0.5,0.935,1.0,0.604,0.117
114.83338,0.365,1.0,0.721,0.099,0.233,0.049,0.049,0.054,0.074,0.152,0.097,0.66
115.04367,0.233,0.817,0.522,0.269,0.264,0.104,0.117,0.211,0.868,1.0,0.403,0.447
115.54776,1.0,0.56,0.271,0.352,0.683,0.17,0.087,0.125,0.513,0.463,0.314,0.941
115.79265,0.537,0.404,0.071,0.08,0.347,0.176,1.0,0.744,0.873,0.929,0.288,0.061
115.96077,0.656,1.0,0.573,0.087,0.313,0.129,0.456,0.071,0.138,0.342,0.085,0.293
116.17642,0.735,1.0,0.619,0.117,0.627,0.136,0.106,0.095,0.334,0.225,0.066,0.309
116.39166,0.955,1.0,0.167,0.167,0.631,0.197,0.673,0.683,0.299,0.257,0.611,0.268
116.56957,0.383,1.0,0.705,0.239,0.949,0.122,0.098,0.074,0.198,0.38,0.076,0.313
116.80472,0.753,1.0,0.599,0.879,0.541,0.292,0.301,0.103,0.185,0.421,0.158,0.673
117.03351,1.0,0.565,0.158,0.043,0.161,0.085,0.138,0.09,0.411,0.466,0.838,0.137
117.17909,0.648,0.184,0.282,0.137,0.348,0.126,0.118,0.073,0.083,0.355,0.145,1.0
117.4156,0.612,0.392,0.211,0.071,0.31,0.056,0.043,0.016,0.033,0.049,0.024,1.0
117.66177,0.501,0.218,0.155,0.039,0.138,0.024,0.042,0.028,0.052,0.046,0.057,1.0
117.89941,0.123,0.142,0.104,0.07,0.074,0.034,0.062,0.021,0.065,0.225,0.462,1.0
118.51615,0.753,1.0,0.556,0.357,0.174,0.219,0.204,0.224,0.229,0.246,0.163,0.425
118.73029,0.526,1.0,0.484,0.11,0.131,0.03,0.028,0.051,0.082,0.197,0.045,0.543
118.97488,0.983,0.7,0.38,0.123,0.341,0.166,0.088,0.186,0.495,0.265,0.073,1.0
119.21705,0.598,1.0,0.224,0.146,0.21,0.162,0.226,0.073,0.166,0.208,0.116,0.277
119.65166,0.928,1.0,0.423,0.046,0.113,0.019,0.02,0.014,0.039,0.096,0.016,0.458
119.84363,0.494,1.0,0.158,0.058,0.169,0.033,0.017,0.019,0.069,0.073,0.043,0.17
120.21773,0.463,1.0,0.368,0.347,0.162,0.159,0.106,0.037,0.149,0.303,0.125,0.155
120.51125,0.935,1.0,0.257,0.116,0.12,0.092,0.084,0.076,0.256,0.334,0.602,0.068
120.61628,0.158,1.0,0.668,0.097,0.118,0.07,0.056,0.056,0.07,0.178,0.057,0.251
120.9356,0.627,1.0,0.513,0.088,0.125,0.049,0.103,0.073,0.104,0.132,0.052,0.074
121.16744,0.353,1.0,0.994,0.211,0.299,0.062,0.095,0.034,0.247,0.334,0.244,0.162
121.56862,0.416,0.456,0.319,0.156,0.121,0.109,0.36,0.069,0.248,1.0,0.924,0.354
121.9917,0.973,1.0,0.687,0.381,0.237,0.113,0.108,0.084,0.135,0.262,0.156,0.612
122.3522,0.833,1.0,0.317,0.286,0.193,0.102,0.297,0.302,0.554,0.676,0.322,0.071
122.47587,0.694,0.427,0.525,0.704,1.0,0.36,0.085,0.06,0.212,0.178,0.113,0.237
122.71288,0.266,0.598,0.623,1.0,0.532,0.246,0.424,0.194,0.278,0.411,0.312,0.253
123.11782,0.782,0.837,0.832,1.0,0.873,0.144,0.042,0.034,0.084,0.145,0.026,0.145
123.34476,1.0,0.874,0.119,0.238,0.845,0.314,0.247,0.225,0.249,0.273,0.196,0.296
123.46562,0.54,0.621,0.706,0.605,1.0,0.255,0.046,0.035,0.052,0.146,0.039,0.149
123.71628,0.424,1.0,0.336,0.539,0.45,0.113,0.151,0.076,0.254,0.339,0.166,0.366
123.9946,0.164,0.639,1.0,0.561,0.795,0.375,0.12,0.065,0.172,0.43,0.785,0.447
124.39528,0.367,1.0,0.509,0.477,0.661,0.061,0.034,0.041,0.091,0.087,0.07,0.219
124.62721,0.147,0.39,0.369,0.832,1.0,0.094,0.088,0.08,0.141,0.29,0.27,0.358
125.45882,0.783,1.0,0.575,0.518,0.525,0.427,0.967,0.123,0.311,0.375,0.128,0.762
125.82272,0.446,1.0,0.592,0.576,0.816,0.753,0.665,0.593,0.42,0.551,0.149,0.032
125.92612,0.111,0.304,0.166,0.13,0.299,0.326,1.0,0.148,0.214,0.107,0.048,0.213
126.17732,0.138,0.227,0.139,0.064,0.167,0.691,1.0,0.173,0.055,0.092,0.112,0.092
126.55592,0.072,0.276,0.143,0.037,0.093,0.241,1.0,0.126,0.029,0.029,0.022,0.035
126.82317,0.364,0.535,0.145,0.253,0.734,0.312,1.0,0.245,0.146,0.295,0.102,0.205
127.19279,0.835,1.0,0.268,0.667,0.233,0.378,0.384,0.144,0.702,0.622,0.3,0.612
127.4727,0.533,1.0,0.593,0.223,0.658,0.508,0.708,0.651,0.907,0.801,0.633,0.125
127.59927,0.387,0.502,0.454,0.232,0.304,0.276,0.779,0.213,1.0,0.198,0.095,0.532
127.88227,0.654,1.0,0.372,0.202,0.185,0.153,0.445,0.191,0.525,0.128,0.05,0.176
128.10449,0.188,0.492,0.18,0.216,0.185,0.148,0.367,0.6,1.0,0.254,0.263,0.205
128.53447,0.214,0.252,0.136,0.099,0.101,0.082,0.297,0.282,0.422,1.0,0.751,0.182
128.96136,0.172,0.595,0.382,0.223,0.144,0.091,0.105,0.15,0.353,1.0,0.412,0.237
129.4278,1.0,0.371,0.234,0.217,0.499,0.206,0.188,0.167,0.77,0.331,0.243,0.426
129.65111,0.497,0.365,0.049,0.051,0.136,0.095,0.565,0.494,0.945,1.0,0.442,0.018
129.83438,0.787,1.0,0.569,0.107,0.362,0.088,0.227,0.064,0.23,0.738,0.237,0.174
130.06649,1.0,0.962,0.539,0.128,0.421,0.154,0.075,0.053,0.14,0.743,0.211,0.138
130.28662,0.08,0.209,0.086,0.077,0.25,0.078,0.102,0.191,0.573,1.0,0.289,0.054
130.72848,0.932,1.0,0.702,0.528,0.345,0.077,0.16,0.064,0.176,0.364,0.077,0.636
130.97197,0.254,0.142,0.351,0.096,0.12,0.074,0.141,0.054,0.079,0.232,0.887,1.0
131.35138,0.524,0.666,0.497,0.254,0.59,0.087,0.102,0.076,0.12,0.14,0.095,1.0
131.55914,0.098,0.176,0.101,0.068,0.084,0.03,0.043,0.033,0.066,0.131,0.302,1.0
132.40449,1.0,0.774,0.175,0.386,0.187,0.15,0.143,0.143,0.239,0.312,0.105,0.973
132.73134,0.644,1.0,0.072,0.059,0.073,0.046,0.028,0.037,0.204,0.253,0.222,0.051
132.91138,0.62,1.0,0.396,0.049,0.103,0.055,0.02,0.041,0.184,0.086,0.029,0.184
133.13728,0.697,1.0,0.21,0.135,0.157,0.214,0.261,0.049,0.104,0.105,0.238,0.077
133.2478,0.53,1.0,0.374,0.074,0.179,0.07,0.129,0.061,0.142,0.118,0.051,0.28
133.57565,0.791,1.0,0.182,0.082,0.378,0.065,0.035,0.018,0.091,0.169,0.028,0.32
133.77011,1.0,0.714,0.247,0.234,0.559,0.138,0.055,0.04,0.129,0.331,0.178,0.478
134.19973,0.55,1.0,0.636,0.466,0.218,0.062,0.084,0.044,0.117,0.178,0.067,0.6
134.49596,0.241,1.0,0.57,0.086,0.06,0.046,0.056,0.037,0.069,0.128,0.051,0.19
134.81501,0.343,1.0,0.581,0.056,0.027,0.02,0.033,0.017,0.043,0.066,0.027,0.037
135.08204,0.162,1.0,0.998,0.105,0.048,0.053,0.038,0.02,0.193,0.315,0.103,0.075
135.49474,0.342,0.796,0.513,0.119,0.087,0.098,0.297,0.05,0.231,1.0,0.847,0.26
135.91211,0.778,1.0,0.292,0.165,0.547,0.464,0.357,0.318,0.774,0.985,0.628,0.264
136.07696,0.117,0.44,0.259,0.354,0.543,0.158,0.145,0.047,0.403,1.0,0.608,0.162
136.47533,0.64,0.845,0.278,0.29,0.492,0.29,0.588,0.598,1.0,0.902,0.569,0.063
136.62644,0.548,0.87,0.391,0.706,0.804,0.311,0.463,0.128,0.508,1.0,0.511,0.515
137.04567,0.796,0.977,0.449,0.72,1.0,0.153,0.085,0.044,0.13,0.199,0.034,0.206
137.25855,0.526,1.0,0.125,0.215,0.552,0.286,0.208,0.179,0.181,0.227,0.219,0.16
137.35841,0.686,1.0,0.054,0.26,0.698,0.205,0.162,0.118,0.283,0.3,0.086,0.124
137.47964,0.292,0.208,0.288,0.888,1.0,0.168,0.036,0.025,0.035,0.081,0.042,0.09
137.70027,0.859,1.0,0.69,0.467,0.442,0.133,0.078,0.049,0.092,0.204,0.061,0.693
137.93229,0.434,0.943,0.906,0.823,1.0,0.88,0.575,0.558,0.331,0.348,0.17,0.124
138.03882,0.19,0.437,0.322,0.304,1.0,0.107,0.086,0.059,0.083,0.14,0.062,0.595
138.32649,0.336,0.831,0.404,0.428,1.0,0.139,0.038,0.028,0.089,0.091,0.07,0.273
138.51923,0.189,0.572,0.275,0.68,1.0,0.1,0.065,0.058,0.122,0.107,0.158,0.347
139.21528,0.715,1.0,0.362,0.413,0.607,0.35,0.184,0.161,0.783,0.779,0.973,0.079
139.34921,0.453,1.0,0.594,0.458,0.521,0.376,0.887,0.154,0.261,0.5,0.269,0.771
139.87052,0.646,0.736,0.465,0.266,0.518,0.173,1.0,0.288,0.443,0.416,0.137,0.741
140.05714,0.169,0.327,0.23,0.113,0.266,0.346,1.0,0.136,0.08,0.187,0.187,0.132
140.50014,0.138,0.445,0.231,0.068,0.202,0.21,1.0,0.129,0.044,0.075,0.03,0.063
140.7366,0.07,0.304,0.084,0.108,0.157,0.145,1.0,0.056,0.042,0.088,0.063,0.075
141.09601,0.765,1.0,0.322,0.6,0.354,0.208,0.519,0.138,0.265,0.298,0.115,0.515
141.39841,0.188,0.447,0.91,0.353,0.642,0.253,0.753,0.521,0.637,0.459,1.0,0.426
141.81043,0.35,1.0,0.381,0.155,0.472,0.079,0.185,0.127,0.609,0.197,0.116,0.229
142.03673,0.086,0.445,0.209,0.161,0.334,0.115,0.252,0.474,1.0,0.235,0.187,0.111
142.43701,0.266,0.164,0.218,0.149,0.221,0.131,0.189,0.295,1.0,0.303,0.178,0.189
143.76653,0.158,0.344,0.146,0.134,0.214,0.074,0.085,0.512,1.0,0.211,0.064,0.169
143.99274,0.242,0.269,0.189,0.199,0.571,0.45,0.837,0.861,1.0,0.913,0.558,0.085
144.11905,0.058,0.088,0.099,0.257,0.454,0.159,0.172,0.301,1.0,0.435,0.186,0.11
144.53878,0.102,0.15,0.143,0.388,0.967,0.208,0.334,0.46,1.0,0.278,0.16,0.241
145.05515,0.138,0.119,0.185,0.36,1.0,0.168,0.113,0.279,0.611,0.141,0.061,0.25
145.43868,0.125,0.071,0.059,0.108,0.512,1.0,0.588,0.22,0.121,0.249,0.057,0.13
145.6341,0.037,0.039,0.022,0.029,0.224,0.046,0.063,0.178,1.0,0.96,0.198,0.07
145.77351,0.026,0.03,0.043,0.042,0.146,0.048,0.032,0.132,0.729,1.0,0.535,0.086
145.92481,0.013,0.016,0.011,0.016,0.123,0.029,0.029,0.025,0.138,1.0,0.106,0.035
146.11669,0.046,0.052,0.03,0.045,0.305,0.071,0.092,0.104,0.755,1.0,0.145,0.079
146.24141,0.034,0.036,0.015,0.066,0.191,0.033,0.03,0.027,0.44,1.0,0.047,0.059
146.77247,0.061,0.056,0.036,0.068,0.66,0.067,0.064,0.074,0.201,1.0,0.103,0.096
147.06853,0.057,0.046,0.068,0.188,0.171,0.05,0.155,0.654,1.0,0.546,0.183,0.053
147.16308,0.314,0.031,0.018,0.03,0.169,0.054,0.159,0.076,0.089,0.323,0.32,1.0
147.35964,0.077,0.007,0.008,0.016,0.045,0.019,0.048,0.03,0.026,0.049,0.222,1.0
148.05447,0.141,0.011,0.005,0.017,0.059,0.011,0.035,0.006,0.01,0.025,0.141,1.0
148.26535,0.295,0.013,0.007,0.025,0.137,0.014,0.052,0.011,0.014,0.026,0.193,1.0
148.49578,0.244,0.041,0.009,0.032,0.037,0.014,0.062,0.017,0.037,0.042,0.264,1.0
148.64707,0.147,0.009,0.008,0.028,0.083,0.009,0.118,0.009,0.009,0.017,0.064,1.0
149.00948,0.799,0.307,0.031,0.072,0.078,0.037,0.178,0.127,0.435,0.445,0.934,1.0
149.12023,0.125,0.008,0.009,0.013,0.077,0.009,0.09,0.009,0.011,0.022,0.245,1.0
149.54494,0.104,0.043,0.018,0.017,0.146,0.008,0.042,0.013,0.018,0.04,0.164,1.0
150.11719,0.114,0.542,0.118,0.02,0.332,0.029,0.05,0.023,0.058,0.086,0.289,1.0
150.54993,0.418,0.479,0.14,0.427,0.849,0.289,0.129,0.159,0.806,0.758,1.0,0.096
150.6712,0.072,1.0,0.081,0.015,0.337,0.029,0.013,0.01,0.087,0.136,0.032,0.07
151.26834,0.296,1.0,0.094,0.136,0.268,0.261,0.425,0.342,0.252,0.108,0.082,0.046
151.4337,0.343,0.374,0.039,0.015,0.152,0.032,0.031,0.113,0.364,0.671,0.907,1.0
151.56961,0.08,0.29,0.168,0.025,0.07,0.017,0.012,0.024,0.09,1.0,0.195,0.035
151.76544,0.439,0.642,0.072,0.039,0.115,0.028,0.014,0.061,0.168,1.0,0.398,0.186
151.90331,0.168,0.502,0.187,0.084,0.218,0.031,0.041,0.059,0.524,1.0,0.137,0.158
152.31946,0.624,0.94,0.88,1.0,0.459,0.243,0.086,0.066,0.219,0.214,0.547,0.564
152.41147,0.134,0.501,0.236,0.09,0.098,0.032,0.07,0.099,0.71,1.0,0.159,0.055
152.54998,1.0,0.49,0.927,0.084,0.119,0.036,0.098,0.071,0.188,0.702,0.13,0.648
152.89723,0.13,0.15,0.408,0.126,0.044,0.018,0.114,0.023,0.101,0.232,0.107,1.0
153.11932,0.122,0.392,1.0,0.149,0.024,0.014,0.05,0.014,0.058,0.187,0.052,0.107
153.2932,0.087,0.142,1.0,0.061,0.011,0.004,0.024,0.008,0.015,0.13,0.011,0.136
153.62875,0.044,0.089,1.0,0.046,0.024,0.008,0.03,0.008,0.019,0.17,0.01,0.044
154.29669,0.305,1.0,0.509,0.053,0.083,0.022,0.018,0.014,0.051,0.191,0.016,0.041
154.53905,0.309,1.0,0.254,0.044,0.087,0.047,0.025,0.035,0.193,0.207,0.056,0.021
154.64449,0.103,0.668,1.0,0.22,0.451,0.097,0.063,0.018,0.116,0.356,0.022,0.053
154.84739,0.032,0.239,1.0,0.068,0.427,0.044,0.072,0.044,0.062,0.28,0.016,0.061
155.50372,0.334,1.0,0.273,0.059,0.72,0.06,0.032,0.06,0.143,0.247,0.135,0.236
155.80776,0.095,0.186,0.24,0.182,0.93,0.108,0.099,0.3,0.35,0.829,1.0,0.318
156.21283,0.214,0.406,0.205,0.465,1.0,0.433,0.075,0.134,0.792,0.851,0.155,0.311
156.32295,0.033,0.064,0.046,0.076,0.745,0.041,0.042,0.054,0.259,1.0,0.057,0.109
158.0932,0.015,0.035,0.05,0.079,1.0,0.058,0.054,0.04,0.115,0.162,0.034,0.235
158.91832,0.223,0.23,0.051,0.398,1.0,0.344,0.121,0.038,0.227,0.306,0.037,0.216
159.1093,0.173,0.134,0.062,0.219,1.0,0.095,0.12,0.038,0.125,0.174,0.059,0.577
159.29977,0.115,0.069,0.079,0.08,0.557,0.108,0.115,0.054,0.231,0.205,0.073,1.0
159.4683,0.039,0.019,0.015,0.043,0.145,0.018,0.023,0.042,1.0,0.136,0.034,0.082
159.63741,0.042,0.022,0.021,0.194,0.127,0.051,0.048,0.139,1.0,0.081,0.079,0.036
159.7883,0.037,0.026,0.057,0.281,0.201,0.052,0.076,0.19,1.0,0.082,0.076,0.079
160.1244,0.017,0.064,0.018,0.05,0.094,0.035,0.99,0.098,0.325,1.0,0.043,0.019
160.818,0.007,0.041,0.006,0.01,0.025,0.059,1.0,0.031,0.086,0.435,0.029,0.01
161.39646,0.011,0.089,0.01,0.009,0.033,0.251,1.0,0.141,0.107,0.288,0.02,0.009
161.58821,0.038,0.176,0.015,0.011,0.043,0.349,1.0,0.101,0.067,0.195,0.025,0.012
161.79039,0.017,0.055,0.01,0.02,0.046,0.066,1.0,0.106,0.174,0.171,0.023,0.018
162.62299,0.03,0.019,0.018,0.137,0.142,0.026,0.126,0.149,1.0,0.065,0.017,0.104
163.36912,0.099,0.06,0.042,0.305,0.597,0.143,0.634,0.616,1.0,0.689,0.134,0.185
163.55066,0.025,0.007,0.016,0.11,0.147,0.013,0.03,0.091,1.0,0.034,0.012,0.082
164.17574,0.022,0.011,0.012,0.067,0.213,0.015,0.019,0.09,1.0,0.119,0.013,0.087
164.44376,0.052,0.018,0.024,0.222,0.165,0.064,0.068,0.27,1.0,0.117,0.039,0.103
164.57719,0.045,0.021,0.034,0.165,0.068,0.038,0.039,0.424,1.0,0.09,0.054,0.051
164.69909,0.043,0.028,0.039,0.128,0.084,0.041,0.106,0.454,1.0,0.09,0.062,0.047
164.94753,0.013,0.015,0.009,0.023,0.099,0.009,0.013,0.061,0.237,1.0,0.059,0.017
165.59488,0.01,0.015,0.005,0.009,0.2,0.006,0.008,0.018,0.099,1.0,0.094,0.014
166.13175,0.019,0.027,0.006,0.02,0.265,0.008,0.011,0.02,0.119,1.0,0.157,0.019
166.44136,0.014,0.022,0.007,0.008,0.083,0.01,0.01,0.021,0.152,1.0,0.077,0.017
166.71351,0.074,0.058,0.029,0.041,0.238,0.045,0.073,0.071,0.415,1.0,0.442,0.327
167.12095,0.688,0.231,0.013,0.089,0.25,0.084,0.188,0.078,0.407,1.0,0.592,0.257
167.26354,0.999,0.32,0.015,0.083,0.229,0.071,0.113,0.047,0.405,1.0,0.851,0.343
167.40295,0.296,0.023,0.014,0.033,0.123,0.015,0.084,0.016,0.116,0.639,0.222,1.0
167.78662,0.116,0.022,0.014,0.036,0.061,0.025,0.282,0.023,0.151,0.623,0.162,1.0
168.38989,0.156,0.011,0.005,0.013,0.035,0.007,0.044,0.005,0.026,0.057,0.217,1.0
168.81356,0.05,0.01,0.01,0.008,0.059,0.007,0.045,0.006,0.009,0.023,0.166,1.0
169.4361,0.142,0.097,0.012,0.011,0.045,0.009,0.037,0.013,0.032,0.028,0.19,1.0
170.11542,0.635,1.0,0.071,0.022,0.056,0.041,0.024,0.022,0.439,0.398,0.875,0.037
170.26957,0.644,1.0,0.531,0.063,0.164,0.036,0.015,0.018,0.202,0.088,0.012,0.488
170.45887,0.288,1.0,0.597,0.073,0.3,0.036,0.01,0.017,0.12,0.131,0.017,0.05
170.65841,0.618,1.0,0.041,0.037,0.159,0.041,0.014,0.023,0.122,0.108,0.157,0.016
170.81546,0.089,1.0,0.197,0.045,0.162,0.027,0.016,0.012,0.098,0.05,0.019,0.039
171.22023,0.074,1.0,0.406,0.029,0.29,0.029,0.007,0.008,0.09,0.191,0.021,0.043
171.51791,0.203,1.0,0.43,0.031,0.379,0.031,0.009,0.017,0.211,0.394,0.061,0.019
171.75497,0.157,0.871,0.242,0.08,0.491,0.064,0.079,0.031,0.162,0.174,0.392,1.0
172.19859,0.543,0.518,0.41,0.101,0.189,0.053,0.058,0.025,0.045,0.349,0.189,1.0
172.41524,0.066,0.136,1.0,0.171,0.085,0.017,0.046,0.01,0.024,0.191,0.101,0.231
172.64757,0.09,0.143,1.0,0.131,0.068,0.019,0.083,0.014,0.021,0.182,0.091,0.162
172.91905,0.032,0.11,1.0,0.106,0.049,0.015,0.053,0.01,0.012,0.125,0.027,0.045
173.63891,0.405,1.0,0.41,0.053,0.032,0.019,0.058,0.037,0.021,0.093,0.065,0.089
173.81878,0.231,0.552,1.0,0.075,0.036,0.016,0.041,0.029,0.093,0.272,0.162,0.237
174.74245,0.075,0.143,0.136,0.076,0.107,0.025,0.015,0.016,0.151,1.0,0.165,0.147
175.01474,0.031,0.058,0.101,0.024,0.181,0.017,0.007,0.012,0.132,1.0,0.085,0.024
175.33755,0.056,0.114,0.108,0.124,0.413,0.103,0.021,0.041,0.506,1.0,0.181,0.051
175.45125,0.052,0.095,0.062,0.065,0.485,0.027,0.021,0.028,0.137,1.0,0.056,0.08
175.82875,0.025,0.049,0.037,0.038,0.643,0.015,0.013,0.013,0.169,1.0,0.036,0.06
176.53946,0.025,0.026,0.034,0.027,1.0,0.04,0.015,0.017,0.111,0.349,0.028,0.09
177.48739,0.023,0.017,0.026,0.045,1.0,0.047,0.017,0.012,0.062,0.093,0.021,0.132
177.87673,0.071,0.03,0.033,0.193,1.0,0.144,0.053,0.024,0.055,0.084,0.055,0.358
178.04009,0.023,0.022,0.038,0.035,1.0,0.041,0.04,0.015,0.062,0.051,0.023,0.198
179.10658,0.027,0.01,0.008,0.062,0.145,0.036,0.025,0.092,1.0,0.072,0.009,0.087
179.32562,0.053,0.018,0.018,0.213,0.397,0.093,0.077,0.107,1.0,0.218,0.028,0.137
179.48435,0.038,0.015,0.108,0.294,0.238,0.053,0.149,0.286,1.0,0.054,0.016,0.113
180.10027,0.288,0.168,0.199,0.756,0.655,0.52,0.693,0.735,1.0,0.572,0.183,0.413
180.19111,0.025,0.037,0.035,0.136,0.021,0.022,0.137,0.142,1.0,0.246,0.021,0.019
180.3371,0.025,0.062,0.033,0.069,0.076,0.191,0.757,0.23,0.803,1.0,0.098,0.042
180.55837,0.018,0.111,0.021,0.03,0.031,0.084,1.0,0.088,0.234,0.545,0.053,0.021
181.27379,0.011,0.038,0.007,0.01,0.023,0.201,1.0,0.08,0.118,0.251,0.026,0.008
181.48512,0.037,0.095,0.022,0.025,0.027,0.188,1.0,0.078,0.1,0.349,0.075,0.013
181.63143,0.048,0.168,0.052,0.111,0.22,0.288,1.0,0.118,0.068,0.302,0.05,0.021
181.83964,0.032,0.071,0.025,0.078,0.123,0.241,1.0,0.111,0.342,0.212,0.05,0.049
182.91687,0.046,0.046,0.022,0.167,0.261,0.088,0.801,0.128,1.0,0.192,0.025,0.168
183.23528,0.079,0.041,0.033,0.089,0.576,0.118,0.217,0.147,1.0,0.447,0.03,0.13
183.50834,0.082,0.078,0.066,0.214,0.688,0.136,0.221,0.215,1.0,0.462,0.07,0.185
183.70862,0.114,0.062,0.082,0.613,1.0,0.411,0.843,0.406,0.66,0.366,0.142,0.232
183.82349,0.078,0.05,0.032,0.136,0.576,0.137,0.528,0.254,1.0,0.168,0.036,0.173
184.06512,0.145,0.129,0.172,0.357,1.0,0.427,0.747,0.405,0.729,0.331,0.13,0.25
184.16231,0.038,0.016,0.014,0.099,0.169,0.019,0.15,0.091,1.0,0.843,0.068,0.067
184.34798,0.055,0.009,0.016,0.169,0.123,0.05,0.1,0.13,1.0,0.215,0.044,0.052
184.49043,0.062,0.014,0.05,0.344,0.17,0.038,0.076,0.26,1.0,0.169,0.024,0.071
184.84141,0.014,0.016,0.019,0.103,0.119,0.055,0.051,0.141,0.636,1.0,0.206,0.028
184.97102,0.024,0.025,0.013,0.111,0.183,0.04,0.051,0.113,0.184,1.0,0.434,0.092
185.14444,0.029,0.027,0.016,0.076,0.154,0.019,0.086,0.136,0.326,1.0,0.127,0.035
185.32295,0.017,0.033,0.014,0.049,0.186,0.017,0.016,0.043,0.291,1.0,0.093,0.047
185.67673,0.059,0.076,0.027,0.082,0.852,0.028,0.035,0.083,0.294,1.0,0.119,0.096
186.01134,0.114,0.109,0.031,0.145,0.561,0.166,0.141,0.266,0.95,1.0,0.358,0.15
186.10671,0.032,0.085,0.018,0.041,0.103,0.028,0.025,0.056,0.414,1.0,0.221,0.068
186.33392,0.041,0.049,0.009,0.049,0.175,0.015,0.019,0.038,0.552,1.0,0.364,0.07
186.54295,0.239,0.06,0.018,0.047,0.143,0.104,0.37,0.398,0.753,1.0,0.598,0.128
186.66213,0.036,0.052,0.008,0.028,0.236,0.011,0.01,0.014,0.124,1.0,0.295,0.049
186.91692,0.021,0.022,0.004,0.011,0.089,0.01,0.005,0.014,0.201,1.0,0.326,0.026
187.15134,0.113,0.139,0.04,0.103,0.42,0.06,0.186,0.207,0.71,1.0,0.559,0.087
187.32254,0.023,0.024,0.008,0.016,0.059,0.01,0.012,0.023,0.132,1.0,0.132,0.019
187.59587,0.073,0.05,0.007,0.024,0.124,0.025,0.056,0.017,0.162,1.0,0.074,0.21
187.81946,0.624,0.261,0.102,0.043,0.08,0.02,0.156,0.054,0.042,0.125,0.066,1.0
188.08145,0.33,0.368,1.0,0.081,0.081,0.059,0.266,0.031,0.066,0.268,0.204,0.574
188.28317,0.794,0.351,1.0,0.161,0.08,0.071,0.202,0.051,0.297,0.468,0.687,0.3
188.41274,0.981,0.509,1.0,0.067,0.063,0.031,0.171,0.059,0.408,0.536,0.924,0.243
188.54095,0.621,0.168,0.399,0.031,0.029,0.007,0.031,0.01,0.023,0.097,0.042,1.0
188.76707,0.039,0.102,0.177,0.013,0.02,0.005,0.043,0.005,0.007,0.025,0.112,1.0
189.54694,0.973,0.83,0.126,0.037,0.095,0.03,0.097,0.015,0.183,0.191,1.0,0.152
189.72844,0.927,0.61,1.0,0.203,0.258,0.097,0.342,0.205,0.623,0.634,0.962,0.432
189.84073,0.146,1.0,0.836,0.062,0.202,0.039,0.087,0.024,0.062,0.078,0.062,0.626
190.18367,0.52,0.526,1.0,0.058,0.146,0.027,0.06,0.018,0.113,0.055,0.025,0.585
190.41011,0.144,0.895,1.0,0.101,0.446,0.073,0.074,0.04,0.359,0.199,0.117,0.523
191.14154,0.047,1.0,0.179,0.022,0.155,0.041,0.015,0.014,0.171,0.153,0.024,0.045
191.85964,0.382,1.0,0.407,0.018,0.11,0.038,0.009,0.073,0.174,0.12,0.022,0.043
192.11156,0.472,1.0,0.361,0.034,0.11,0.053,0.029,0.03,0.099,0.108,0.145,0.807
192.44168,0.207,0.125,0.159,0.051,0.105,0.05,0.11,0.032,0.049,0.162,0.272,1.0
192.60431,0.092,0.151,1.0,0.117,0.433,0.212,0.07,0.018,0.024,0.158,0.16,0.468
193.74571,0.06,0.135,0.876,0.172,1.0,0.045,0.072,0.013,0.02,0.347,0.04,0.105
194.20086,0.126,0.466,0.368,0.331,1.0,0.051,0.074,0.011,0.053,0.285,0.092,0.096
194.34503,0.108,0.39,0.41,0.166,1.0,0.058,0.102,0.019,0.084,0.778,0.175,0.302
194.49633,0.102,0.157,0.265,0.183,1.0,0.058,0.038,0.026,0.04,0.119,0.034,0.207
194.87923,0.038,0.043,0.065,0.223,1.0,0.104,0.031,0.007,0.034,0.1,0.021,0.146
195.13483,0.018,0.018,0.024,0.082,1.0,0.05,0.013,0.021,0.045,0.105,0.024,0.166
196.49465,0.025,0.018,0.015,0.147,1.0,0.054,0.012,0.011,0.057,0.145,0.027,0.154
196.92385,0.105,0.146,0.063,0.426,1.0,0.33,0.031,0.025,0.136,0.282,0.11,0.149
197.04472,0.048,0.016,0.032,0.244,1.0,0.218,0.034,0.014,0.054,0.047,0.018,0.204
197.28118,0.018,0.032,0.022,0.168,1.0,0.121,0.017,0.007,0.061,0.028,0.011,0.098
197.59138,0.153,0.586,0.903,0.706,1.0,0.427,0.138,0.046,0.094,0.059,0.099,0.521
197.68776,0.064,0.082,0.241,0.314,1.0,0.236,0.041,0.016,0.039,0.059,0.036,0.127
198.02091,0.465,0.467,0.311,0.184,1.0,0.087,0.042,0.042,0.056,0.03,0.063,0.297
198.7995,0.144,0.089,0.093,0.138,0.703,0.137,0.188,0.041,0.042,0.049,0.101,1.0
199.24345,0.182,0.154,0.038,0.075,0.368,0.171,1.0,0.052,0.021,0.219,0.12,0.767
199.55937,0.047,0.09,0.017,0.022,0.078,0.091,1.0,0.079,0.101,0.158,0.052,0.191
199.9141,0.018,0.043,0.009,0.007,0.034,0.056,1.0,0.102,0.034,0.183,0.031,0.084
200.36376,0.069,0.225,0.06,0.033,0.13,0.307,1.0,0.192,0.232,0.94,0.424,0.169
200.48195,0.029,0.081,0.031,0.034,0.124,0.114,1.0,0.13,0.068,0.313,0.056,0.101
201.51156,0.345,0.139,0.152,0.524,0.6,0.235,1.0,0.675,0.999,0.857,0.326,0.406
201.68789,0.093,0.037,0.052,0.375,0.129,0.146,0.772,0.241,1.0,0.113,0.043,0.164
201.97161,0.041,0.025,0.021,0.174,0.37,0.032,0.09,0.403,1.0,0.045,0.018,0.149
202.2737,0.05,0.019,0.035,0.214,0.357,0.036,0.052,0.328,1.0,0.14,0.021,0.186
202.50095,0.076,0.037,0.044,0.132,0.164,0.077,0.145,0.234,1.0,0.272,0.098,0.178
202.63995,0.021,0.006,0.013,0.119,0.118,0.009,0.02,0.07,1.0,0.053,0.011,0.048
202.99546,0.025,0.011,0.027,0.212,0.148,0.014,0.03,0.073,1.0,0.114,0.013,0.056
203.43025,0.059,0.067,0.04,0.225,0.181,0.048,0.077,0.11,0.3,1.0,0.12,0.084
203.60984,0.016,0.019,0.023,0.045,0.228,0.022,0.028,0.044,0.227,1.0,0.104,0.038
204.69574,0.009,0.011,0.003,0.015,0.179,0.005,0.005,0.012,0.143,1.0,0.149,0.014
204.97964,0.012,0.032,0.009,0.013,0.275,0.02,0.012,0.018,0.071,1.0,0.073,0.039
205.50803,0.367,0.143,0.086,0.292,0.934,0.328,0.392,0.421,0.756,1.0,0.658,0.421
205.61188,0.053,0.056,0.028,0.052,0.217,0.051,0.114,0.138,0.642,1.0,0.35,0.078
205.76209,0.055,0.027,0.009,0.043,0.218,0.035,0.046,0.023,0.134,1.0,0.178,0.185
206.02417,0.673,0.079,0.008,0.028,0.129,0.026,0.138,0.057,0.159,0.198,1.0,0.885
206.19596,0.335,0.027,0.008,0.032,0.261,0.039,0.166,0.027,0.432,0.395,0.113,1.0
206.45329,0.221,0.023,0.017,0.069,0.162,0.028,0.338,0.043,0.2,0.761,0.141,1.0
206.87193,0.746,0.064,0.008,0.013,0.069,0.019,0.138,0.018,0.035,0.143,0.038,1.0
207.08177,1.0,0.169,0.006,0.013,0.088,0.024,0.146,0.021,0.356,0.395,0.957,0.258
207.2429,1.0,0.31,0.263,0.277,0.07,0.051,0.533,0.505,0.538,0.539,0.935,0.872
207.32853,0.653,0.034,0.011,0.02,0.078,0.017,0.11,0.012,0.021,0.073,0.043,1.0
207.54612,0.233,0.169,0.029,0.063,0.297,0.042,0.116,0.022,0.086,0.182,0.242,1.0
207.94671,1.0,0.72,0.02,0.083,0.203,0.047,0.071,0.023,0.322,0.277,0.769,0.039
208.08662,0.229,1.0,0.191,0.032,0.398,0.027,0.021,0.009,0.073,0.12,0.013,0.438
208.42889,0.234,1.0,0.108,0.026,0.313,0.05,0.023,0.025,0.162,0.16,0.083,0.571
208.91533,0.109,1.0,0.139,0.029,0.298,0.041,0.033,0.046,0.2,0.286,0.075,0.102
209.33764,0.275,1.0,0.484,0.064,0.232,0.029,0.008,0.017,0.282,0.484,0.033,0.045
209.54095,0.281,0.748,0.416,0.066,0.206,0.04,0.005,0.009,0.299,1.0,0.107,0.091
209.72898,0.112,0.449,0.168,0.01,0.081,0.018,0.005,0.006,0.144,1.0,0.029,0.024
209.99587,0.122,0.18,0.116,0.02,0.084,0.023,0.037,0.013,0.051,0.11,0.09,1.0
210.25664,0.321,0.727,1.0,0.05,0.047,0.015,0.039,0.031,0.083,0.24,0.078,0.474
210.72063,0.239,0.906,1.0,0.255,0.12,0.11,0.115,0.062,0.067,0.12,0.112,0.247
210.78358,0.068,0.267,1.0,0.035,0.017,0.006,0.015,0.005,0.019,0.309,0.02,0.125
211.13175,0.048,0.636,1.0,0.054,0.046,0.013,0.027,0.014,0.031,0.199,0.014,0.063
211.91129,0.151,0.406,1.0,0.039,0.107,0.026,0.067,0.018,0.035,0.427,0.038,0.089
212.24259,0.115,0.258,0.432,0.039,0.032,0.02,0.046,0.037,0.148,0.564,1.0,0.418
212.39279,0.453,1.0,0.48,0.021,0.046,0.051,0.049,0.076,0.144,0.291,0.094,0.113
212.75234,0.327,0.558,1.0,0.052,0.067,0.054,0.095,0.036,0.08,0.248,0.066,0.333
212.89197,0.634,0.759,1.0,0.049,0.067,0.041,0.06,0.054,0.105,0.273,0.528,0.374
213.53955,0.057,0.239,0.34,0.146,0.088,0.015,0.027,0.013,0.171,1.0,0.212,0.101
213.74667,0.113,0.276,0.259,0.055,0.165,0.071,0.063,0.042,0.669,1.0,0.188,0.19
213.84426,0.08,0.077,0.178,0.072,0.51,0.039,0.024,0.031,0.187,1.0,0.094,0.071
214.26803,0.091,0.074,0.086,0.152,1.0,0.145,0.023,0.024,0.2,0.921,0.058,0.079
214.61673,0.028,0.05,0.048,0.034,0.936,0.048,0.017,0.026,0.181,1.0,0.046,0.076
215.78844,0.337,0.592,0.205,0.489,1.0,0.338,0.177,0.726,0.934,0.965,0.47,0.334
215.9054,0.213,0.204,0.13,0.338,1.0,0.186,0.091,0.429,0.822,0.433,0.129,0.35
216.03401,0.116,0.071,0.089,0.153,0.445,0.112,0.054,0.297,1.0,0.391,0.044,0.352
216.1771,0.081,0.071,0.041,0.204,1.0,0.241,0.073,0.169,0.787,0.441,0.033,0.307
216.42095,0.046,0.03,0.022,0.303,0.834,0.25,0.054,0.125,1.0,0.363,0.064,0.212
216.61782,0.033,0.038,0.035,0.066,0.839,0.06,0.049,0.209,1.0,0.315,0.034,0.42
217.14717,0.02,0.032,0.013,0.173,1.0,0.095,0.02,0.14,0.365,0.053,0.015,0.194
217.4707,0.011,0.022,0.021,0.047,1.0,0.074,0.096,0.05,0.1,0.034,0.02,0.096
217.94676,0.025,0.169,0.025,0.027,0.255,0.158,1.0,0.058,0.07,0.136,0.045,0.087
218.4946,0.16,0.534,0.244,0.22,0.921,0.904,1.0,0.951,0.263,0.305,0.051,0.026
218.57596,0.016,0.131,0.02,0.016,0.027,0.064,1.0,0.055,0.017,0.071,0.024,0.013
219.42163,0.033,0.083,0.033,0.04,0.066,0.157,1.0,0.211,0.136,0.111,0.042,0.02
220.32195,0.042,0.056,0.031,0.204,0.157,0.04,0.15,0.158,1.0,0.1,0.028,0.085
221.04336,0.039,0.028,0.026,0.168,0.172,0.016,0.037,0.354,1.0,0.121,0.013,0.076
221.27052,0.021,0.013,0.012,0.142,0.092,0.015,0.039,0.049,1.0,0.05,0.015,0.049
221.79243,0.192,0.091,0.131,0.303,0.355,0.121,0.37,0.703,1.0,0.675,0.327,0.11
221.91896,0.017,0.007,0.004,0.045,0.082,0.022,0.021,0.028,1.0,0.258,0.021,0.03
222.09079,0.028,0.005,0.007,0.079,0.107,0.01,0.006,0.143,1.0,0.034,0.01,0.037
222.34218,0.035,0.01,0.021,0.138,0.084,0.046,0.037,0.411,1.0,0.202,0.024,0.039
222.4512,0.128,0.089,0.115,0.517,0.296,0.179,0.632,0.74,1.0,0.636,0.145,0.163
222.53397,0.012,0.01,0.009,0.034,0.075,0.009,0.012,0.126,1.0,0.129,0.021,0.029
222.99283,0.039,0.013,0.004,0.049,0.062,0.019,0.051,0.174,1.0,0.522,0.177,0.017
223.1337,0.026,0.014,0.004,0.036,0.065,0.011,0.056,0.192,1.0,0.968,0.435,0.012
223.302,0.005,0.018,0.006,0.008,0.108,0.006,0.011,0.025,0.097,1.0,0.035,0.012
224.57973,0.011,0.026,0.011,0.015,0.301,0.015,0.013,0.023,0.221,1.0,0.118,0.024
225.11175,1.0,0.509,0.432,0.449,0.264,0.179,0.709,0.688,0.877,0.896,0.904,0.953
225.19932,0.318,0.024,0.011,0.036,0.147,0.021,0.315,0.048,0.129,0.331,0.21,1.0
225.60562,0.072,0.011,0.01,0.027,0.19,0.01,0.155,0.01,0.024,0.053,0.141,1.0
226.13646,1.0,0.295,0.014,0.033,0.064,0.033,0.1,0.029,0.356,0.36,0.912,0.303
226.2741,0.354,0.012,0.003,0.017,0.069,0.006,0.025,0.003,0.007,0.01,0.011,1.0
226.58553,0.127,0.005,0.003,0.008,0.052,0.006,0.044,0.004,0.007,0.011,0.166,1.0
227.02712,0.865,0.118,0.069,0.359,0.073,0.023,0.07,0.012,0.254,0.256,1.0,0.191
227.19615,1.0,0.343,0.314,0.414,0.86,0.281,0.639,0.625,0.669,0.666,0.99,0.881
227.28113,0.779,0.069,0.013,0.083,0.943,0.04,0.052,0.017,0.246,0.247,1.0,0.17
227.45646,0.975,0.257,0.043,0.216,0.71,0.046,0.098,0.027,0.415,0.417,1.0,0.304
227.59714,0.409,0.041,0.032,0.135,1.0,0.031,0.062,0.011,0.015,0.014,0.043,0.967
227.81066,0.972,0.483,0.055,0.108,0.586,0.029,0.042,0.013,0.317,0.283,1.0,0.287
227.98463,0.118,1.0,0.055,0.145,0.928,0.066,0.039,0.029,0.231,0.201,0.127,0.823
228.69937,0.11,0.507,0.152,0.182,1.0,0.066,0.014,0.023,0.198,0.128,0.063,0.287
229.13927,0.148,1.0,0.081,0.048,0.173,0.02,0.007,0.014,0.129,0.102,0.012,0.032
229.71401,0.378,1.0,0.597,0.088,0.212,0.034,0.005,0.012,0.063,0.029,0.011,0.122
229.90059,0.163,1.0,0.34,0.07,0.1,0.021,0.014,0.012,0.111,0.069,0.012,0.041
230.38789,0.1,0.392,1.0,0.061,0.088,0.054,0.282,0.015,0.032,0.252,0.019,0.053
230.66698,0.083,0.191,1.0,0.041,0.02,0.014,0.127,0.009,0.012,0.086,0.057,0.096
231.35224,0.038,0.097,1.0,0.071,0.146,0.031,0.267,0.019,0.044,0.281,0.041,0.032
232.89515,0.05,0.051,0.091,0.149,1.0,0.07,0.017,0.008,0.062,0.207,0.024,0.067
233.20454,0.033,0.062,0.116,0.168,0.885,0.095,0.028,0.023,0.09,1.0,0.054,0.123
233.59342,0.016,0.028,0.028,0.08,1.0,0.031,0.009,0.015,0.043,0.218,0.03,0.066
234.16268,0.039,0.053,0.049,0.146,1.0,0.162,0.03,0.025,0.089,0.189,0.041,0.089
234.3419,0.263,0.152,0.033,0.305,1.0,0.282,0.116,0.067,0.07,0.201,0.272,0.407
234.56045,0.064,1.0,0.703,0.256,0.882,0.188,0.021,0.017,0.085,0.238,0.04,0.079
234.75297,0.148,0.813,1.0,0.145,0.147,0.187,0.116,0.1,0.095,0.118,0.039,0.133
234.81905,0.064,0.406,0.75,0.08,1.0,0.103,0.1,0.028,0.092,0.239,0.059,0.191
235.29347,0.024,0.267,0.642,0.128,1.0,0.099,0.061,0.017,0.068,0.153,0.027,0.071
235.69873,0.02,0.401,1.0,0.165,0.382,0.159,0.041,0.012,0.046,0.138,0.019,0.179
235.94385,0.063,0.104,0.179,0.302,1.0,0.258,0.052,0.015,0.046,0.099,0.028,0.45
236.19937,0.903,0.946,0.638,0.175,1.0,0.083,0.135,0.237,0.236,0.149,0.087,0.501
236.38454,0.292,0.616,0.155,0.206,1.0,0.087,0.039,0.054,0.199,0.029,0.031,0.13
236.76816,0.609,1.0,0.188,0.143,0.639,0.061,0.037,0.025,0.075,0.042,0.069,0.246
236.94231,0.324,0.323,0.078,0.079,0.365,0.088,0.068,0.023,0.061,0.031,0.384,1.0
237.23741,0.274,0.493,0.162,0.112,1.0,0.124,0.169,0.044,0.094,0.039,0.259,0.65
237.62889,0.046,0.103,0.031,0.074,0.281,0.048,0.037,0.005,0.013,0.018,0.118,1.0
237.93587,0.157,0.155,0.062,0.087,1.0,0.074,0.088,0.037,0.313,0.739,0.24,0.939
238.61492,0.077,0.058,0.052,0.17,1.0,0.177,0.106,0.031,0.068,0.211,0.081,0.362
238.87052,0.193,0.085,0.062,0.246,0.585,0.116,0.07,0.036,0.157,0.158,0.378,1.0
239.00272,0.341,0.259,0.059,0.136,0.203,0.066,0.103,0.044,0.269,0.377,0.393,1.0
239.10952,0.091,0.129,0.044,0.081,1.0,0.054,0.071,0.017,0.059,0.12,0.078,0.541
239.39646,0.122,0.092,0.076,0.097,0.998,0.132,0.397,0.085,0.201,0.168,0.259,1.0
239.90299,0.264,0.123,0.055,0.428,1.0,0.376,0.372,0.122,0.196,0.116,0.076,0.493
240.12857,0.175,0.209,0.033,0.287,1.0,0.152,0.063,0.045,0.102,0.112,0.157,0.222
240.22939,0.05,0.04,0.04,0.066,1.0,0.048,0.067,0.047,0.286,0.227,0.143,0.298
240.76821,0.08,0.036,0.039,0.122,0.716,0.046,0.045,0.092,1.0,0.186,0.263,0.401
241.52213,0.187,0.063,0.047,0.196,1.0,0.208,0.11,0.1,0.609,0.476,0.13,0.395
241.75429,0.059,0.056,0.026,0.111,0.714,0.087,0.087,0.068,0.423,1.0,0.2,0.274
242.10159,0.042,0.026,0.021,0.024,0.3,0.037,0.035,0.04,0.208,1.0,0.188,0.193
243.73796,0.037,0.03,0.017,0.023,0.256,0.019,0.015,0.019,0.066,1.0,0.191,0.244
244.43655,0.024,0.024,0.013,0.016,0.159,0.023,0.016,0.022,0.042,1.0,0.073,0.136
245.7888,0.038,0.035,0.016,0.018,0.247,0.024,0.019,0.026,0.082,1.0,0.088,0.2
246.13714,0.027,0.046,0.018,0.031,0.381,0.03,0.034,0.036,0.067,1.0,0.117,0.064
246.5259,0.022,0.035,0.013,0.014,0.153,0.014,0.011,0.017,0.07,1.0,0.047,0.058
247.39732,0.016,0.05,0.008,0.015,0.183,0.013,0.014,0.026,0.038,1.0,0.082,0.056
248.0712,0.025,0.033,0.018,0.012,0.167,0.018,0.023,0.027,0.062,1.0,0.147,0.108
248.55111,0.081,0.086,0.014,0.05,0.831,0.049,0.017,0.044,0.073,1.0,0.173,0.169
248.81347,0.308,0.146,0.029,0.173,0.606,0.133,0.313,0.331,0.713,1.0,0.737,0.283
248.94113,0.032,0.034,0.006,0.009,0.133,0.012,0.008,0.014,0.142,1.0,0.279,0.088
249.18499,0.014,0.028,0.009,0.014,0.138,0.009,0.007,0.018,0.08,1.0,0.237,0.092
249.47138,0.02,0.026,0.012,0.017,0.191,0.013,0.009,0.018,0.194,1.0,0.31,0.092
249.88694,0.008,0.028,0.025,0.017,0.12,0.018,0.01,0.023,0.101,1.0,0.143,0.069
250.34653,0.017,0.061,0.056,0.019,0.302,0.031,0.021,0.035,0.059,1.0,0.107,0.112
251.49592,0.015,0.018,0.014,0.01,0.109,0.01,0.013,0.016,0.03,1.0,0.044,0.052
