start,0,1,2,3,4,5,6,7,8,9,10,11
0.0,0.951,1.0,0.114,0.023,0.037,0.02,0.063,0.029,0.016,0.007,0.007,0.104
0.28132,0.773,1.0,0.08,0.204,0.162,0.109,0.654,0.157,0.074,0.162,0.098,0.047
1.46626,0.95,1.0,0.055,0.225,0.148,0.072,0.659,0.101,0.088,0.098,0.08,0.035
2.68476,1.0,0.966,0.055,0.268,0.154,0.078,0.738,0.099,0.083,0.237,0.109,0.034
3.91492,0.838,1.0,0.071,0.243,0.177,0.083,0.793,0.128,0.068,0.128,0.082,0.036
5.17061,0.855,1.0,0.139,0.18,0.141,0.077,0.627,0.114,0.097,0.114,0.067,0.029
6.14063,0.565,0.48,1.0,0.329,0.04,0.029,0.092,0.031,0.016,0.063,0.036,0.097
6.37488,0.78,1.0,0.091,0.105,0.112,0.069,0.38,0.122,0.12,0.082,0.077,0.038
7.08354,0.741,1.0,0.641,0.199,0.05,0.034,0.056,0.016,0.054,0.07,0.017,0.158
7.27723,0.144,0.267,1.0,0.153,0.082,0.027,0.114,0.027,0.01,0.037,0.017,0.007
7.7722,0.914,1.0,0.379,0.05,0.014,0.014,0.066,0.051,0.011,0.028,0.048,0.095
8.01211,0.85,1.0,0.502,0.068,0.032,0.064,0.095,0.037,0.016,0.046,0.033,0.145
8.2058,1.0,0.992,0.54,0.114,0.037,0.052,0.081,0.016,0.02,0.025,0.016,0.257
8.3995,0.243,0.375,1.0,0.218,0.135,0.051,0.295,0.052,0.042,0.192,0.045,0.014
9.09361,1.0,0.899,0.307,0.159,0.132,0.097,0.359,0.204,0.119,0.064,0.047,0.048
9.56526,0.876,1.0,0.028,0.011,0.195,0.19,0.23,0.227,0.071,0.083,0.141,0.005
9.72816,0.422,0.544,1.0,0.304,0.173,0.075,0.621,0.119,0.041,0.207,0.037,0.02
10.3751,0.922,1.0,0.234,0.238,0.141,0.084,0.713,0.141,0.102,0.163,0.064,0.037
11.60762,1.0,0.953,0.093,0.15,0.138,0.113,0.414,0.245,0.115,0.074,0.058,0.046
12.06816,0.806,1.0,0.04,0.028,0.146,0.14,0.23,0.228,0.077,0.079,0.094,0.007
12.24354,0.665,1.0,0.972,0.354,0.202,0.149,0.547,0.224,0.138,0.227,0.078,0.042
12.78154,0.57,1.0,0.406,0.352,0.597,0.597,0.518,0.502,0.277,0.302,0.275,0.012
12.90644,1.0,0.985,0.385,0.067,0.013,0.015,0.09,0.062,0.009,0.013,0.044,0.115
13.15061,1.0,0.656,0.396,0.029,0.032,0.038,0.148,0.032,0.012,0.072,0.028,0.051
13.49361,0.208,0.298,1.0,0.195,0.115,0.032,0.258,0.032,0.026,0.161,0.031,0.009
14.21741,1.0,0.866,0.19,0.08,0.097,0.089,0.218,0.156,0.122,0.059,0.05,0.043
14.64299,0.974,1.0,0.072,0.066,0.167,0.154,0.158,0.154,0.045,0.048,0.212,0.009
14.79991,0.535,0.616,1.0,0.25,0.144,0.066,0.369,0.092,0.055,0.269,0.07,0.016
15.34005,0.211,0.833,1.0,0.445,0.092,0.023,0.104,0.07,0.028,0.109,0.064,0.137
15.52662,1.0,0.872,0.337,0.136,0.12,0.092,0.32,0.218,0.125,0.079,0.047,0.047
15.97243,0.983,1.0,0.331,0.323,0.378,0.368,0.325,0.315,0.118,0.126,0.175,0.013
16.12399,1.0,0.553,0.997,0.277,0.202,0.315,0.212,0.291,0.129,0.14,0.052,0.151
16.43714,0.43,0.484,1.0,0.54,0.442,0.174,0.25,0.209,0.28,0.509,0.374,0.146
16.80912,1.0,0.949,0.706,0.337,0.158,0.073,0.543,0.086,0.09,0.28,0.148,0.058
18.20109,1.0,0.606,0.158,0.05,0.028,0.02,0.049,0.052,0.026,0.028,0.036,0.037
18.55805,1.0,0.432,0.212,0.086,0.048,0.072,0.175,0.312,0.165,0.274,0.296,0.21
18.82726,1.0,0.746,0.472,0.178,0.071,0.07,0.105,0.195,0.098,0.1,0.093,0.397
19.0546,0.677,1.0,0.134,0.216,0.239,0.308,0.284,0.227,0.272,0.168,0.208,0.07
19.17633,0.247,0.395,1.0,0.449,0.454,0.175,0.26,0.446,0.278,0.479,0.639,0.258
19.60735,0.984,1.0,0.852,0.213,0.156,0.091,0.511,0.115,0.109,0.242,0.284,0.056
20.83365,1.0,0.946,0.141,0.131,0.041,0.045,0.09,0.09,0.132,0.131,0.013,0.044
21.00694,1.0,0.667,0.094,0.079,0.049,0.098,0.259,0.177,0.038,0.064,0.118,0.071
21.33084,0.999,1.0,0.44,0.187,0.107,0.118,0.308,0.225,0.174,0.14,0.108,0.179
21.71011,0.988,1.0,0.831,0.711,0.83,0.42,0.416,0.402,0.301,0.868,0.737,0.381
22.12912,1.0,0.83,0.302,0.165,0.12,0.115,0.293,0.183,0.115,0.121,0.086,0.069
22.56027,1.0,0.724,0.374,0.283,0.155,0.12,0.476,0.116,0.08,0.288,0.183,0.149
23.05025,0.516,0.462,0.879,0.086,0.174,0.099,0.188,0.059,0.498,1.0,0.374,0.331
23.41964,0.919,1.0,0.377,0.139,0.155,0.083,0.213,0.144,0.201,0.168,0.154,0.039
23.96454,0.754,1.0,0.99,0.092,0.072,0.17,0.42,0.366,0.157,0.111,0.085,0.253
24.3283,0.523,0.831,0.494,0.694,0.677,0.152,0.331,0.517,0.331,1.0,0.51,0.418
24.5146,0.472,1.0,0.76,0.297,0.152,0.067,0.131,0.17,0.237,0.299,0.075,0.127
24.75202,1.0,0.594,0.138,0.075,0.025,0.045,0.083,0.076,0.03,0.035,0.029,0.039
25.04794,1.0,0.572,0.464,0.075,0.054,0.074,0.119,0.013,0.054,0.137,0.028,0.04
25.39342,0.645,0.526,1.0,0.325,0.192,0.082,0.248,0.083,0.094,0.62,0.234,0.121
25.88567,0.414,1.0,0.158,0.121,0.062,0.056,0.065,0.042,0.102,0.103,0.096,0.046
26.06054,0.832,1.0,0.197,0.095,0.113,0.1,0.331,0.222,0.152,0.257,0.17,0.121
26.61179,1.0,0.851,0.185,0.13,0.104,0.084,0.148,0.159,0.242,0.262,0.448,0.274
26.71238,0.768,1.0,0.647,0.197,0.147,0.264,0.313,0.198,0.28,0.647,0.104,0.269
26.97859,0.355,0.455,1.0,0.288,0.175,0.114,0.159,0.156,0.136,0.832,0.296,0.129
27.36308,0.817,1.0,0.231,0.184,0.134,0.097,0.439,0.117,0.099,0.275,0.094,0.058
28.35084,0.767,0.75,0.686,0.713,0.516,0.198,0.665,0.298,0.308,1.0,0.175,0.189
28.73388,1.0,0.945,0.127,0.08,0.111,0.117,0.236,0.303,0.201,0.156,0.062,0.045
29.19279,1.0,0.621,0.464,0.457,0.163,0.163,0.538,0.535,0.555,0.555,0.66,0.584
29.28454,0.903,1.0,0.948,0.489,0.328,0.39,0.479,0.302,0.42,0.555,0.135,0.194
29.80109,0.354,0.739,1.0,0.259,0.134,0.06,0.151,0.083,0.078,0.606,0.167,0.071
30.00027,0.937,1.0,0.498,0.085,0.018,0.032,0.086,0.055,0.01,0.035,0.051,0.104
30.25832,1.0,0.969,0.571,0.133,0.06,0.095,0.11,0.023,0.041,0.212,0.126,0.237
30.45184,0.389,0.337,1.0,0.175,0.096,0.045,0.213,0.052,0.077,0.222,0.104,0.052
31.34286,0.932,1.0,0.212,0.106,0.129,0.107,0.268,0.271,0.567,0.148,0.086,0.082
31.86363,0.96,1.0,0.695,0.221,0.201,0.142,0.328,0.179,0.201,0.316,0.251,0.273
33.85596,1.0,0.647,0.121,0.046,0.019,0.033,0.046,0.041,0.033,0.054,0.039,0.03
34.18145,1.0,0.792,0.227,0.066,0.061,0.088,0.188,0.195,0.121,0.091,0.057,0.15
34.48272,0.593,0.831,0.815,0.86,0.567,0.133,0.201,0.204,0.403,1.0,0.288,0.239
35.04757,0.95,0.994,0.559,0.342,0.309,0.48,0.149,0.127,0.81,1.0,0.576,0.312
35.14209,0.923,1.0,0.461,0.216,0.132,0.071,0.403,0.097,0.122,0.277,0.107,0.048
36.03075,0.861,1.0,0.303,0.282,0.28,0.285,0.234,0.22,0.214,0.204,0.388,0.037
36.12844,0.709,1.0,0.858,0.28,0.307,0.129,0.212,0.173,0.32,0.73,0.385,0.233
36.35329,1.0,0.637,0.059,0.041,0.025,0.027,0.136,0.102,0.02,0.067,0.103,0.047
36.6659,1.0,0.814,0.369,0.105,0.097,0.118,0.283,0.287,0.46,0.436,0.116,0.159
37.12866,1.0,0.709,0.571,0.319,0.242,0.295,0.358,0.42,0.466,0.431,0.483,0.385
37.24653,0.918,1.0,0.73,0.228,0.148,0.125,0.202,0.193,0.11,0.55,0.448,0.323
37.52898,0.744,1.0,0.66,0.651,0.241,0.236,0.595,0.571,0.908,0.911,0.764,0.426
37.58943,0.922,1.0,0.454,0.18,0.183,0.126,0.57,0.119,0.138,0.334,0.13,0.049
38.39986,0.496,1.0,0.153,0.136,0.152,0.116,0.143,0.142,0.058,0.047,0.059,0.021
38.58136,0.661,0.889,1.0,0.44,0.226,0.149,0.158,0.189,0.468,0.429,0.129,0.132
38.85048,0.985,1.0,0.216,0.216,0.092,0.091,0.098,0.101,0.103,0.103,0.085,0.027
39.00989,1.0,0.85,0.297,0.082,0.096,0.051,0.126,0.171,0.048,0.068,0.031,0.103
39.26472,1.0,0.844,0.158,0.143,0.123,0.12,0.163,0.147,0.089,0.078,0.215,0.07
39.40494,1.0,0.95,0.15,0.061,0.058,0.08,0.061,0.055,0.125,0.075,0.092,0.143
39.57778,0.958,1.0,0.544,0.14,0.16,0.214,0.216,0.272,0.28,0.93,0.086,0.183
39.80952,0.46,0.92,1.0,0.331,0.206,0.074,0.122,0.072,0.195,0.655,0.222,0.135
40.00113,1.0,0.818,0.384,0.086,0.101,0.125,0.337,0.18,0.123,0.213,0.074,0.06
40.39583,0.746,1.0,0.118,0.076,0.087,0.089,0.169,0.17,0.069,0.098,0.039,0.006
40.57383,0.639,0.735,1.0,0.185,0.146,0.064,0.44,0.131,0.115,0.403,0.22,0.045
41.12227,0.744,0.869,0.772,0.764,0.344,0.34,0.371,0.372,0.772,0.773,1.0,0.58
41.19388,1.0,0.839,0.409,0.139,0.089,0.093,0.257,0.168,0.177,0.115,0.084,0.061
41.58381,1.0,0.813,0.33,0.297,0.177,0.173,0.178,0.184,0.218,0.148,0.292,0.234
41.69061,1.0,0.982,0.362,0.371,0.268,0.205,0.462,0.24,0.247,0.46,0.319,0.245
43.57873,1.0,0.804,0.122,0.101,0.076,0.107,0.416,0.41,0.199,0.071,0.1,0.05
44.07837,0.583,0.552,0.296,0.218,0.12,0.04,0.368,1.0,0.539,0.077,0.071,0.215
44.30966,0.715,1.0,0.634,0.863,0.894,0.603,0.652,0.646,0.722,0.725,0.409,0.993
44.81932,1.0,0.581,0.062,0.043,0.069,0.053,0.064,0.059,0.021,0.04,0.043,0.078
45.12975,0.756,1.0,0.175,0.576,0.183,0.112,0.69,0.102,0.127,0.386,0.358,0.291
45.81356,0.646,1.0,0.477,0.428,0.348,0.29,0.132,0.134,0.184,0.121,0.237,0.03
45.90703,1.0,0.904,0.111,0.152,0.097,0.097,0.361,0.19,0.137,0.092,0.204,0.072
46.41424,0.94,1.0,0.287,0.177,0.138,0.141,0.07,0.065,0.032,0.029,0.104,0.224
46.54721,0.544,1.0,0.75,0.29,0.205,0.223,0.234,0.15,0.303,0.544,0.236,0.093
46.92735,0.694,1.0,0.667,0.283,0.468,0.448,0.137,0.099,0.244,0.75,0.432,0.22
47.07719,1.0,0.968,0.322,0.415,0.249,0.145,0.68,0.197,0.149,0.301,0.176,0.056
47.92744,1.0,0.873,0.209,0.772,0.531,0.18,0.274,0.068,0.079,0.422,0.556,0.396
48.17161,0.806,1.0,0.742,0.777,0.845,0.784,0.709,0.694,0.458,0.452,0.292,0.124
48.28961,1.0,0.947,0.128,0.118,0.079,0.081,0.135,0.13,0.135,0.135,0.059,0.049
48.44317,1.0,0.79,0.117,0.238,0.046,0.071,0.143,0.125,0.14,0.139,0.1,0.057
48.75333,1.0,0.607,0.204,0.12,0.11,0.088,0.145,0.149,0.115,0.128,0.258,0.177
48.89066,1.0,0.786,0.485,0.469,0.411,0.413,0.391,0.142,0.197,0.778,0.228,0.205
49.2171,0.486,0.476,0.38,1.0,0.416,0.298,0.21,0.104,0.22,0.511,0.605,0.785
49.49946,1.0,0.841,0.115,0.209,0.129,0.084,0.222,0.148,0.125,0.228,0.44,0.039
49.93088,1.0,0.719,0.372,0.652,0.388,0.226,0.5,0.108,0.15,0.35,0.789,0.158
50.65569,0.921,1.0,0.168,0.18,0.158,0.089,0.396,0.203,0.194,0.393,0.106,0.083
51.27515,1.0,0.974,0.257,0.244,0.149,0.13,0.315,0.129,0.201,0.258,0.297,0.191
53.22871,0.665,1.0,0.152,0.076,0.079,0.064,0.156,0.171,0.19,0.052,0.085,0.038
53.70331,1.0,0.937,0.257,0.19,0.229,0.252,0.179,0.099,0.194,0.243,0.093,0.11
54.02444,0.265,1.0,0.308,0.246,0.195,0.171,0.144,0.111,0.218,0.401,0.205,0.068
54.47719,0.79,1.0,0.226,0.29,0.162,0.086,0.46,0.093,0.199,0.192,0.306,0.063
55.51533,0.643,1.0,0.109,0.05,0.03,0.034,0.065,0.057,0.08,0.075,0.134,0.008
55.65941,1.0,0.752,0.23,0.05,0.016,0.023,0.092,0.123,0.028,0.059,0.029,0.061
55.92576,0.975,1.0,0.183,0.038,0.03,0.046,0.164,0.09,0.089,0.033,0.092,0.169
56.22816,1.0,0.942,0.682,0.246,0.348,0.19,0.293,0.158,0.252,0.214,0.146,0.394
56.54712,0.744,1.0,0.903,0.585,0.477,0.546,0.086,0.048,0.383,0.331,0.416,0.238
56.86195,1.0,0.889,0.155,0.048,0.063,0.103,0.26,0.183,0.129,0.052,0.043,0.048
57.2649,0.844,1.0,0.512,0.057,0.034,0.051,0.095,0.025,0.113,0.092,0.095,0.191
57.48766,0.217,1.0,0.295,0.173,0.131,0.099,0.153,0.06,0.158,0.078,0.059,0.038
58.02866,1.0,0.87,0.132,0.109,0.11,0.097,0.158,0.236,0.206,0.081,0.108,0.033
58.4654,1.0,0.642,0.124,0.042,0.121,0.074,0.304,0.297,0.206,0.368,0.207,0.207
58.67927,0.939,1.0,0.523,0.138,0.114,0.179,0.195,0.108,0.178,0.119,0.382,0.58
58.90222,0.658,1.0,0.438,0.057,0.075,0.031,0.084,0.082,0.303,0.231,0.112,0.396
59.21701,0.913,1.0,0.228,0.251,0.149,0.086,0.561,0.1,0.143,0.222,0.108,0.049
60.46186,1.0,0.917,0.089,0.308,0.173,0.067,0.798,0.129,0.074,0.194,0.112,0.027
61.65937,1.0,0.654,0.037,0.287,0.18,0.049,0.424,0.06,0.079,0.099,0.046,0.018
62.82272,1.0,0.709,0.044,0.276,0.176,0.057,0.584,0.097,0.087,0.082,0.051,0.024
64.03333,1.0,0.728,0.053,0.26,0.147,0.063,0.697,0.072,0.078,0.14,0.06,0.023
65.26612,1.0,0.749,0.05,0.257,0.135,0.06,0.464,0.067,0.091,0.07,0.063,0.026
66.50281,1.0,0.715,0.039,0.252,0.134,0.054,0.597,0.062,0.076,0.155,0.067,0.021
67.76308,1.0,0.739,0.044,0.307,0.154,0.07,0.705,0.078,0.079,0.166,0.07,0.025
68.99619,1.0,0.743,0.042,0.312,0.182,0.058,0.656,0.071,0.082,0.204,0.079,0.022
70.29093,1.0,0.939,0.067,0.126,0.109,0.077,0.524,0.207,0.132,0.035,0.047,0.037
70.95841,0.783,1.0,0.512,0.933,0.838,0.207,0.39,0.22,0.196,0.153,0.36,0.213
71.48472,1.0,0.74,0.087,0.293,0.149,0.083,0.646,0.107,0.106,0.131,0.123,0.034
72.5688,0.66,1.0,0.651,0.635,0.82,0.835,0.431,0.394,0.095,0.081,0.193,0.09
72.74862,1.0,0.751,0.079,0.139,0.121,0.089,0.374,0.195,0.133,0.165,0.077,0.034
73.2946,1.0,0.909,0.073,0.083,0.081,0.081,0.138,0.236,0.281,0.133,0.316,0.081
73.41279,0.874,1.0,0.547,0.258,0.121,0.134,0.068,0.198,0.145,0.105,0.215,0.476
73.60222,0.489,0.613,1.0,0.324,0.258,0.121,0.353,0.144,0.116,0.61,0.095,0.089
74.13029,1.0,0.801,0.28,0.253,0.153,0.071,0.677,0.105,0.102,0.249,0.137,0.061
75.20712,0.537,0.306,0.511,0.194,0.075,0.027,0.271,1.0,0.203,0.039,0.236,0.295
75.51197,1.0,0.642,0.217,0.462,0.329,0.272,0.702,0.224,0.265,0.348,0.322,0.219
76.76653,1.0,0.752,0.17,0.235,0.136,0.078,0.433,0.096,0.095,0.147,0.138,0.034
77.60644,1.0,0.634,0.118,0.145,0.376,0.304,0.152,0.038,0.051,0.093,0.296,0.227
77.89324,0.357,1.0,0.667,0.404,0.552,0.56,0.402,0.386,0.179,0.177,0.079,0.023
78.0566,1.0,0.717,0.086,0.109,0.083,0.093,0.472,0.259,0.136,0.095,0.069,0.044
78.58268,1.0,0.648,0.503,0.14,0.19,0.227,0.162,0.132,0.152,0.175,0.086,0.14
78.94698,0.586,0.364,1.0,0.863,0.745,0.201,0.358,0.279,0.12,0.464,0.305,0.163
79.36689,1.0,0.759,0.164,0.248,0.125,0.089,0.673,0.127,0.096,0.196,0.141,0.032
80.31052,0.967,1.0,0.063,0.033,0.059,0.788,0.536,0.066,0.034,0.032,0.046,0.134
80.61519,1.0,0.698,0.087,0.113,0.102,0.086,0.381,0.184,0.111,0.122,0.062,0.033
81.13184,1.0,0.679,0.489,0.618,0.571,0.19,0.573,0.302,0.415,0.557,0.282,0.172
81.93755,1.0,0.977,0.064,0.278,0.141,0.076,0.49,0.116,0.132,0.119,0.222,0.036
82.67995,1.0,0.813,0.12,0.155,0.415,0.439,0.131,0.072,0.051,0.038,0.068,0.234
82.94744,0.488,0.46,0.171,0.103,0.165,0.438,1.0,0.283,0.059,0.182,0.405,0.183
83.18812,1.0,0.691,0.066,0.084,0.081,0.075,0.288,0.202,0.135,0.046,0.122,0.072
83.6537,1.0,0.684,0.497,0.586,0.682,0.4,0.591,0.159,0.353,0.614,0.294,0.358
84.48077,1.0,0.703,0.085,0.319,0.213,0.181,0.578,0.073,0.1,0.172,0.205,0.155
85.72059,0.245,0.203,0.186,0.185,0.431,0.43,1.0,0.999,0.628,0.63,0.246,0.067
85.81156,1.0,0.994,0.391,0.061,0.024,0.059,0.118,0.075,0.02,0.088,0.136,0.234
86.00136,1.0,0.906,0.235,0.035,0.097,0.084,0.148,0.097,0.052,0.498,0.115,0.067
86.28005,0.603,0.723,0.104,0.107,0.184,0.099,0.107,0.118,0.114,1.0,0.543,0.062
86.40168,0.814,0.471,0.323,0.162,0.209,0.104,0.159,0.149,0.136,1.0,0.42,0.226
87.32925,0.083,0.245,0.295,0.267,0.184,0.099,0.067,0.065,0.176,1.0,0.228,0.133
87.50671,0.324,0.208,1.0,0.645,0.247,0.111,0.116,0.117,0.124,0.43,0.286,0.114
87.98177,0.437,1.0,0.414,0.486,0.362,0.294,0.255,0.249,0.236,0.43,0.443,0.087
88.10063,0.323,0.934,0.544,0.684,0.51,0.427,0.178,0.146,0.133,1.0,0.715,0.151
88.28313,1.0,0.912,0.214,0.203,0.048,0.036,0.037,0.034,0.085,0.282,0.202,0.038
88.44358,0.952,1.0,0.264,0.246,0.155,0.072,0.048,0.047,0.05,0.198,0.296,0.015
88.59052,0.224,0.222,0.259,0.14,0.24,0.05,0.08,0.031,0.047,1.0,0.142,0.031
89.31633,1.0,0.952,0.276,0.206,0.056,0.037,0.077,0.07,0.157,0.208,0.396,0.107
89.41524,1.0,0.801,0.651,0.181,0.071,0.037,0.079,0.016,0.022,0.093,0.137,0.059
89.7098,1.0,0.726,0.97,0.39,0.126,0.101,0.045,0.029,0.073,0.26,0.239,0.099
89.87937,1.0,0.231,0.808,0.165,0.095,0.084,0.192,0.36,0.225,0.35,0.255,0.299
90.89138,0.186,0.39,1.0,0.415,0.439,0.256,0.557,0.538,0.443,0.688,0.601,0.581
91.32485,1.0,0.435,0.105,0.261,0.185,0.105,0.279,0.381,0.211,0.111,0.096,0.779
91.42132,0.849,0.763,0.652,0.311,0.471,0.407,0.309,0.62,1.0,0.526,0.538,0.688
91.65129,1.0,0.953,0.481,0.307,0.124,0.145,0.061,0.063,0.119,0.31,0.359,0.037
91.77578,0.837,1.0,0.325,0.252,0.147,0.094,0.078,0.101,0.181,0.69,0.385,0.038
91.91107,0.213,0.467,0.284,0.086,0.143,0.048,0.073,0.047,0.069,1.0,0.101,0.039
92.77043,1.0,0.77,0.409,0.235,0.06,0.065,0.065,0.051,0.079,0.127,0.101,0.02
92.94848,1.0,0.764,0.763,0.132,0.057,0.073,0.09,0.04,0.056,0.286,0.06,0.072
93.21075,0.765,0.745,1.0,0.155,0.044,0.045,0.148,0.074,0.082,0.577,0.077,0.15
93.42599,0.174,0.142,1.0,0.149,0.059,0.041,0.081,0.048,0.031,0.279,0.077,0.069
93.95642,0.999,1.0,0.282,0.078,0.252,0.051,0.041,0.064,0.057,0.148,0.052,0.117
94.21129,1.0,0.966,0.328,0.258,0.429,0.104,0.082,0.093,0.081,0.08,0.29,0.161
94.32032,0.562,0.364,1.0,0.125,0.769,0.104,0.085,0.062,0.06,0.405,0.147,0.294
94.62141,0.55,0.37,0.585,0.338,0.629,0.29,0.605,0.397,0.349,1.0,0.68,0.522
96.09215,0.672,0.963,0.689,0.25,0.255,0.171,0.064,0.17,1.0,0.207,0.132,0.379
96.25769,0.874,1.0,0.385,0.39,0.278,0.173,0.073,0.107,0.439,0.519,0.413,0.117
96.359,1.0,0.669,0.35,0.342,0.219,0.191,0.113,0.127,0.232,0.303,0.294,0.206
96.46073,0.975,1.0,0.681,0.261,0.534,0.312,0.123,0.112,0.209,0.77,0.208,0.339
96.64689,0.519,0.224,0.612,0.192,0.301,0.1,0.051,0.064,0.128,1.0,0.125,0.194
96.91918,0.475,0.296,1.0,0.292,0.334,0.154,0.116,0.059,0.107,0.597,0.121,0.183
97.34757,1.0,0.982,0.642,0.107,0.083,0.055,0.086,0.065,0.03,0.224,0.139,0.093
97.61075,1.0,0.963,0.991,0.406,0.175,0.167,0.172,0.178,0.229,0.285,0.319,0.056
97.72154,0.699,0.73,1.0,0.181,0.056,0.042,0.055,0.029,0.073,0.197,0.043,0.084
97.93587,0.224,0.182,1.0,0.209,0.115,0.068,0.107,0.04,0.036,0.335,0.114,0.101
98.46948,1.0,0.884,0.278,0.212,0.223,0.04,0.036,0.049,0.092,0.123,0.267,0.149
98.6219,1.0,0.615,0.621,0.604,0.521,0.324,0.232,0.235,0.295,0.292,0.669,0.585
98.69134,1.0,0.593,0.688,0.207,0.82,0.166,0.195,0.129,0.114,0.552,0.299,0.312
99.0683,0.784,0.448,0.396,0.208,1.0,0.141,0.111,0.091,0.167,0.377,0.179,0.338
99.66571,1.0,0.962,0.137,0.134,0.046,0.041,0.082,0.065,0.041,0.031,0.103,0.346
99.80417,1.0,0.7,0.177,0.163,0.157,0.122,0.6,0.257,0.072,0.097,0.131,0.091
99.97215,0.777,0.53,0.281,0.314,0.221,0.144,0.756,0.53,0.431,1.0,0.597,0.399
101.02957,0.262,1.0,0.564,0.157,0.16,0.086,0.104,0.196,0.337,0.924,0.138,0.096
101.2088,0.312,0.709,0.374,0.263,0.213,0.127,0.098,0.117,0.518,1.0,0.204,0.183
101.60005,0.509,0.642,0.359,0.194,0.384,0.237,0.135,0.157,0.476,1.0,0.217,0.243
101.96875,0.799,1.0,0.147,0.132,0.105,0.1,0.05,0.052,0.093,0.171,0.084,0.098
102.15329,0.919,1.0,0.434,0.31,0.269,0.189,0.113,0.122,0.073,0.264,0.248,0.06
102.28358,0.543,0.821,0.665,0.153,0.232,0.094,0.167,0.091,0.19,1.0,0.169,0.097
103.06059,1.0,0.884,0.839,0.811,0.517,0.509,0.322,0.323,0.479,0.493,0.954,0.681
103.12649,1.0,0.905,0.505,0.189,0.093,0.092,0.074,0.071,0.088,0.14,0.082,0.068
103.31066,1.0,0.767,0.566,0.104,0.072,0.121,0.069,0.077,0.132,0.323,0.13,0.089
103.59605,0.477,0.922,1.0,0.141,0.146,0.168,0.235,0.094,0.23,0.369,0.128,0.146
104.16626,0.623,1.0,0.718,0.21,0.119,0.099,0.129,0.084,0.056,0.054,0.144,0.22
104.37383,0.906,0.851,0.525,0.484,1.0,0.461,0.407,0.341,0.316,0.47,0.409,0.1
104.49002,0.633,0.585,0.245,0.217,1.0,0.207,0.173,0.199,0.104,0.126,0.223,0.095
104.64721,0.365,0.307,0.899,0.205,1.0,0.363,0.479,0.377,0.517,0.992,0.494,0.401
105.31102,0.593,1.0,0.136,0.145,0.05,0.034,0.132,0.078,0.127,0.088,0.025,0.097
105.48367,1.0,0.922,0.517,0.185,0.199,0.15,0.722,0.245,0.209,0.447,0.186,0.185
105.69941,0.619,0.745,0.622,0.3,0.183,0.162,1.0,0.558,0.255,0.288,0.154,0.078
105.84603,0.384,0.363,0.598,0.558,0.255,0.086,0.768,1.0,0.183,0.464,0.422,0.148
106.47528,0.728,1.0,0.741,0.427,0.182,0.168,0.1,0.265,0.215,0.182,0.092,0.233
106.67315,1.0,0.807,0.71,0.347,0.325,0.355,0.364,0.715,0.43,0.804,0.304,0.246
106.85293,0.769,0.337,0.55,0.372,0.563,0.416,0.326,0.763,0.262,1.0,0.243,0.261
107.02073,0.43,0.355,0.708,0.351,0.251,0.192,0.148,0.417,0.158,1.0,0.643,0.163
108.18825,0.519,0.621,0.892,0.746,0.469,0.663,0.689,0.387,0.202,1.0,0.3,0.62
108.38626,0.249,1.0,0.148,0.118,0.101,0.201,0.078,0.074,0.178,0.306,0.171,0.213
108.56635,0.668,0.681,0.187,0.338,0.459,0.368,0.123,0.181,0.614,1.0,0.362,0.348
108.71333,0.797,1.0,0.602,0.251,0.112,0.168,0.115,0.319,0.297,0.282,0.073,0.331
108.92145,1.0,0.547,0.378,0.393,0.445,0.374,0.374,0.317,0.169,0.321,0.124,0.188
109.09365,0.126,0.164,0.09,0.078,0.198,0.193,0.527,0.386,0.279,1.0,0.225,0.12
109.79651,0.986,1.0,0.825,0.354,0.145,0.198,0.124,0.256,0.139,0.304,0.14,0.358
110.01955,0.893,0.87,0.632,0.394,0.417,0.232,0.34,0.262,0.398,1.0,0.476,0.214
110.85946,1.0,0.795,0.592,0.302,0.214,0.125,0.049,0.055,0.077,0.167,0.174,0.143
111.12363,0.85,1.0,0.492,0.783,0.972,0.32,0.338,0.443,0.683,0.644,0.256,0.314
112.00971,0.867,1.0,0.466,0.168,0.048,0.084,0.275,0.086,0.077,0.096,0.117,0.084
112.20159,0.705,1.0,0.429,0.226,0.163,0.222,0.476,0.171,0.213,0.119,0.099,0.223
112.40844,0.665,0.65,0.904,0.703,0.486,0.417,0.84,1.0,0.584,0.358,0.28,0.154
113.04195,0.924,0.558,0.781,0.427,0.284,0.212,0.128,0.16,0.179,1.0,0.202,0.216
113.38245,0.543,0.348,0.223,0.473,0.393,0.208,0.233,0.325,0.308,1.0,0.397,0.277
113.60907,0.207,0.16,0.187,0.25,0.431,0.261,0.258,0.312,0.276,1.0,0.271,0.162
114.19034,0.726,1.0,0.279,0.284,0.205,0.189,0.434,0.465,0.576,0.796,0.192,0.15
114.34621,0.779,1.0,0.528,0.362,0.295,0.201,0.244,0.235,0.38,0.491,0.297,0.178
114.46086,0.488,0.358,0.638,0.202,0.275,0.104,0.145,0.285,1.0,0.542,0.133,0.122
114.79569,0.805,0.428,0.692,0.254,0.274,0.237,0.181,0.091,0.571,1.0,0.193,0.245
115.09465,0.198,0.228,0.474,0.285,0.657,0.418,0.212,0.121,0.366,1.0,0.306,0.308
115.60045,0.227,0.293,0.562,0.302,0.318,0.205,0.207,0.128,0.204,1.0,0.276,0.354
116.29147,0.789,1.0,0.957,0.477,0.328,0.255,0.115,0.159,0.18,0.659,0.213,0.747
116.56054,0.698,1.0,0.953,0.653,0.645,0.493,0.39,0.39,0.636,0.953,0.364,0.494
117.43107,0.497,0.667,0.865,0.754,0.28,0.331,0.401,0.874,1.0,0.358,0.553,0.25
118.6127,1.0,0.963,0.172,0.297,0.575,0.342,0.179,0.257,0.484,0.803,0.29,0.484
118.92054,0.572,1.0,0.435,0.269,0.717,0.394,0.103,0.091,0.424,0.993,0.551,0.174
119.10073,0.359,0.862,0.516,0.374,0.79,0.36,0.385,0.376,0.448,1.0,0.391,0.439
119.70463,0.764,1.0,0.286,0.448,0.408,0.289,0.28,0.209,0.162,0.578,0.333,0.159
119.89061,0.823,0.874,0.271,0.189,0.228,0.327,0.437,0.258,0.291,1.0,0.49,0.328
120.2907,0.315,0.396,0.231,0.258,0.432,0.304,0.287,0.254,0.293,1.0,0.406,0.374
120.82658,0.983,0.955,0.446,0.783,1.0,0.397,0.519,0.459,0.252,0.445,0.269,0.352
121.03995,1.0,0.814,0.353,0.339,0.326,0.297,0.334,0.327,0.239,0.509,0.276,0.343
121.39161,0.395,0.296,0.469,0.25,0.259,0.215,0.24,0.279,0.298,1.0,0.298,0.172
122.01361,0.99,1.0,0.746,0.298,0.719,0.604,0.358,0.569,0.511,0.493,0.267,0.512
122.26,1.0,0.796,0.419,0.251,0.473,0.231,0.258,0.181,0.389,0.456,0.259,0.272
122.60608,0.933,0.715,0.814,0.591,0.6,0.701,0.35,0.599,0.558,1.0,0.49,0.52
123.57737,0.805,1.0,0.944,0.8,0.758,0.336,0.461,0.884,0.394,0.331,0.247,0.592
123.8551,0.275,0.269,0.358,0.206,0.203,0.251,0.293,0.364,0.37,1.0,0.262,0.238
124.59873,0.196,0.564,0.329,0.248,0.289,0.17,0.2,0.249,0.488,1.0,0.256,0.2
125.29814,0.743,1.0,0.549,0.326,0.362,0.31,0.195,0.343,0.474,0.841,0.31,0.246
126.90889,0.32,0.341,0.345,0.226,0.313,0.441,0.482,0.421,0.423,1.0,0.168,0.22
127.21048,0.338,0.705,0.737,0.219,0.398,0.414,0.536,0.801,0.719,1.0,0.383,0.281
127.78517,0.63,0.446,0.837,0.502,0.374,1.0,0.961,0.549,0.381,0.906,0.426,0.312
128.20295,1.0,0.815,0.952,0.267,0.372,0.662,0.468,0.338,0.321,0.671,0.488,0.294
130.17243,0.915,0.521,0.065,0.317,0.227,0.081,0.412,0.097,0.042,1.0,0.483,0.053
131.38594,1.0,0.56,0.045,0.329,0.245,0.102,0.647,0.072,0.032,0.312,0.211,0.059
132.55324,1.0,0.547,0.036,0.338,0.179,0.098,0.851,0.086,0.03,0.105,0.092,0.064
133.84961,1.0,0.515,0.034,0.359,0.205,0.101,0.666,0.048,0.028,0.123,0.067,0.039
135.04122,0.97,0.564,0.046,0.371,0.197,0.113,1.0,0.068,0.041,0.225,0.119,0.071
136.29061,1.0,0.58,0.059,0.301,0.188,0.117,0.806,0.093,0.04,0.074,0.052,0.057
137.47447,1.0,0.543,0.041,0.332,0.169,0.097,0.799,0.079,0.037,0.075,0.079,0.046
138.71651,1.0,0.493,0.048,0.217,0.141,0.135,0.705,0.127,0.042,0.127,0.07,0.042
139.58485,0.883,1.0,0.609,0.713,0.717,0.735,0.451,0.413,0.224,0.202,0.324,0.243
139.73125,1.0,0.915,0.768,0.929,0.816,0.638,0.434,0.445,0.463,0.403,0.14,0.088
139.85977,0.959,0.57,0.308,0.653,0.355,0.217,1.0,0.249,0.118,0.223,0.332,0.166
141.25651,0.847,1.0,0.152,0.425,0.174,0.179,0.707,0.452,0.153,0.185,0.303,0.113
142.56844,1.0,0.761,0.264,0.139,0.16,0.132,0.43,0.207,0.074,0.209,0.264,0.137
143.30503,1.0,0.903,0.474,0.702,0.436,0.174,0.44,0.214,0.23,0.335,0.49,0.159
143.78816,1.0,0.494,0.087,0.076,0.068,0.127,0.433,0.15,0.048,0.067,0.062,0.076
144.2283,1.0,0.491,0.08,0.135,0.035,0.04,0.258,0.388,0.223,0.1,0.063,0.1
144.57002,1.0,0.918,0.375,0.498,0.464,0.396,0.361,0.426,0.159,0.114,0.268,0.014
144.70621,1.0,0.859,0.434,0.699,0.591,0.402,0.414,0.419,0.238,0.229,0.228,0.12
144.86141,0.314,0.209,0.129,0.151,0.189,0.246,0.07,0.119,0.188,0.269,1.0,0.775
145.08458,1.0,0.543,0.131,0.077,0.11,0.131,0.296,0.129,0.071,0.07,0.142,0.175
145.51741,1.0,0.846,0.883,0.643,0.44,0.183,0.769,0.143,0.1,0.318,0.355,0.086
146.18054,0.494,0.875,1.0,0.503,0.566,0.523,0.324,0.32,0.047,0.084,0.016,0.052
146.35673,1.0,0.55,0.127,0.223,0.206,0.162,0.781,0.084,0.07,0.116,0.245,0.217
147.08499,0.937,1.0,0.325,0.154,0.195,0.226,0.37,0.318,0.355,0.332,0.434,0.146
147.18721,0.613,0.495,0.15,0.122,0.056,0.191,0.618,1.0,0.298,0.11,0.693,0.698
147.40494,1.0,0.572,0.149,0.101,0.09,0.084,0.07,0.107,0.1,0.085,0.109,0.435
147.52794,1.0,0.673,0.332,0.418,0.185,0.134,0.859,0.115,0.077,0.211,0.176,0.125
148.86313,1.0,0.874,0.2,0.196,0.156,0.155,0.115,0.116,0.031,0.037,0.139,0.021
149.00902,1.0,0.831,0.382,0.35,0.295,0.254,0.247,0.249,0.153,0.343,0.229,0.028
149.13601,0.569,0.321,0.044,0.02,0.103,0.035,0.289,0.283,0.045,1.0,0.202,0.04
149.4678,0.555,0.494,1.0,0.303,0.265,0.912,0.269,0.317,0.261,0.656,0.199,0.206
151.09805,0.821,1.0,0.238,0.233,0.103,0.107,0.08,0.079,0.116,0.158,0.308,0.038
151.23664,1.0,0.879,0.426,0.199,0.107,0.055,0.057,0.017,0.076,0.441,0.112,0.211
151.42834,1.0,0.69,0.277,0.21,0.355,0.142,0.203,0.192,0.062,0.504,0.258,0.036
151.60322,0.253,0.212,0.292,0.177,0.227,0.066,0.104,0.041,0.066,1.0,0.202,0.07
152.37061,1.0,0.935,0.615,0.122,0.035,0.078,0.12,0.055,0.052,0.14,0.065,0.29
152.55923,0.725,0.765,1.0,0.274,0.068,0.039,0.056,0.021,0.032,0.181,0.098,0.139
152.7522,0.45,0.254,1.0,0.21,0.235,0.49,0.684,0.549,0.285,0.5,0.256,0.309
154.26227,0.667,1.0,0.17,0.066,0.113,0.159,0.165,0.133,0.144,0.114,0.154,0.161
154.54612,0.623,1.0,0.423,0.257,0.193,0.204,0.071,0.081,0.267,0.394,0.347,0.199
154.71093,0.916,1.0,0.53,0.154,0.221,0.09,0.085,0.05,0.047,0.573,0.142,0.287
154.9107,0.421,0.405,0.587,0.16,0.245,0.105,0.208,0.065,0.091,1.0,0.131,0.098
155.68145,0.46,0.599,1.0,0.245,0.186,0.173,0.113,0.107,0.113,0.246,0.313,0.09
155.84063,1.0,0.379,0.863,0.087,0.053,0.054,0.078,0.024,0.061,0.323,0.051,0.076
156.14086,0.312,0.25,1.0,0.157,0.063,0.036,0.133,0.036,0.061,0.205,0.05,0.053
156.79968,1.0,0.865,0.656,0.321,0.478,0.197,0.165,0.089,0.085,0.361,0.283,0.536
157.01819,1.0,0.532,0.127,0.106,0.755,0.116,0.045,0.044,0.056,0.029,0.017,0.288
157.20481,0.637,0.627,1.0,0.168,0.68,0.198,0.236,0.103,0.089,0.284,0.105,0.131
157.61129,0.582,0.3,0.456,0.217,0.366,0.175,0.779,1.0,0.3,0.565,0.151,0.254
158.62454,0.303,0.325,0.236,0.341,0.478,0.899,0.691,1.0,0.306,0.461,0.262,0.35
158.91175,0.976,0.638,0.223,0.175,0.197,0.165,0.1,0.093,0.208,0.205,1.0,0.047
158.99683,0.933,1.0,0.278,0.28,0.163,0.067,0.096,0.13,0.297,0.249,0.204,0.149
159.15224,0.22,0.413,0.846,0.224,0.239,0.109,0.09,0.108,0.225,1.0,0.177,0.089
160.13066,0.507,1.0,0.463,0.095,0.112,0.062,0.061,0.065,0.108,0.175,0.227,0.104
160.25125,0.891,1.0,0.367,0.196,0.036,0.028,0.056,0.056,0.077,0.098,0.146,0.144
160.40168,1.0,0.796,0.48,0.131,0.089,0.056,0.034,0.052,0.029,0.188,0.297,0.159
160.59959,0.764,0.612,1.0,0.385,0.178,0.135,0.341,0.137,0.143,0.936,0.318,0.128
161.24481,0.725,1.0,0.883,0.305,0.348,0.156,0.132,0.059,0.04,0.173,0.193,0.358
161.46612,1.0,0.876,0.666,0.42,0.326,0.206,0.238,0.249,0.212,0.255,0.133,0.157
161.57474,0.735,0.534,0.479,0.163,1.0,0.229,0.163,0.121,0.147,0.344,0.146,0.167
162.01215,0.704,0.451,0.424,0.448,0.465,0.308,0.245,0.213,0.77,1.0,0.198,0.271
162.42454,0.987,1.0,0.855,0.833,0.661,0.66,0.637,0.579,0.543,0.541,0.993,0.591
162.50249,1.0,0.65,0.25,0.265,0.144,0.087,0.272,0.286,0.242,0.116,0.088,0.221
162.71642,1.0,0.808,0.574,0.658,0.299,0.185,0.989,0.835,0.195,0.161,0.159,0.199
162.85211,0.858,0.49,0.467,0.618,0.356,0.381,1.0,0.85,0.527,0.376,0.695,0.404
163.63741,0.386,0.365,0.454,0.352,0.376,0.441,0.196,0.172,0.288,1.0,0.456,0.299
164.57501,1.0,0.928,0.257,0.247,0.154,0.139,0.108,0.105,0.386,0.737,0.565,0.264
164.67211,0.927,1.0,0.533,0.302,0.175,0.207,0.199,0.233,0.181,0.283,0.22,0.139
164.83066,1.0,0.975,0.947,0.377,0.353,0.159,0.119,0.116,0.185,0.81,0.367,0.213
165.06989,0.616,0.392,1.0,0.347,0.297,0.147,0.144,0.112,0.163,0.974,0.223,0.15
165.65905,0.784,1.0,0.246,0.104,0.062,0.056,0.081,0.082,0.14,0.192,0.297,0.072
165.79637,0.669,0.836,1.0,0.446,0.201,0.206,0.138,0.124,0.177,0.242,0.2,0.017
165.91805,0.147,0.304,1.0,0.079,0.038,0.023,0.061,0.068,0.086,0.288,0.075,0.054
166.72535,0.739,1.0,0.703,0.204,0.17,0.156,0.345,0.304,0.062,0.145,0.145,0.311
166.92921,1.0,0.94,0.39,0.407,0.311,0.196,0.566,0.707,0.164,0.132,0.153,0.319
167.04902,0.972,1.0,0.482,0.635,0.997,0.489,0.733,0.671,0.656,0.658,0.503,0.44
167.14177,0.752,0.808,0.761,0.56,0.401,0.245,1.0,0.764,0.292,0.483,0.184,0.231
167.58449,0.973,1.0,0.612,0.499,0.915,0.603,0.288,0.832,0.737,0.34,0.176,0.419
167.77565,0.784,1.0,0.501,0.583,0.324,0.211,0.222,0.307,0.927,0.527,0.507,0.18
167.87492,0.788,1.0,0.607,0.658,0.346,0.196,0.202,0.13,0.547,0.992,0.336,0.244
168.01964,0.381,0.435,0.421,0.175,0.32,0.26,0.212,0.106,0.265,1.0,0.221,0.235
168.28168,0.484,0.761,0.7,0.399,0.481,0.408,0.406,0.189,0.332,1.0,0.406,0.333
168.94739,0.608,1.0,0.334,0.18,0.056,0.104,0.028,0.13,0.066,0.097,0.11,0.041
169.09383,0.75,1.0,0.925,0.405,0.328,0.182,0.079,0.43,0.209,0.663,0.28,0.173
169.36005,0.396,0.514,1.0,0.367,0.194,0.212,0.137,0.568,0.379,0.879,0.366,0.188
170.24281,0.488,0.36,0.378,0.342,0.321,0.231,0.091,0.151,0.374,1.0,0.335,0.255
170.56018,0.328,0.295,0.18,0.171,0.161,0.071,0.051,0.105,0.433,1.0,0.603,0.238
170.65578,0.848,1.0,0.434,0.434,0.577,0.477,0.192,0.215,0.273,0.214,0.239,0.456
170.74803,0.235,0.242,0.403,0.313,0.32,0.258,0.418,0.652,1.0,0.317,0.124,0.091
171.00821,0.796,1.0,0.544,0.39,0.261,0.202,0.401,0.394,0.326,0.302,0.423,0.163
171.11229,0.972,1.0,0.992,0.969,0.644,0.49,0.343,0.333,0.233,0.317,0.691,0.543
171.17465,0.708,0.818,0.762,0.761,0.327,0.253,1.0,0.459,0.367,0.546,0.349,0.271
171.2995,0.829,1.0,0.398,0.484,0.464,0.38,0.605,0.368,0.152,0.641,0.201,0.199
171.47977,0.783,1.0,0.582,0.943,0.45,0.37,0.515,0.488,0.511,0.616,0.879,0.48
171.56014,0.325,0.696,0.525,0.386,0.203,0.202,1.0,0.922,0.373,0.341,0.234,0.116
171.65528,1.0,0.672,0.534,0.428,0.412,0.141,0.455,0.555,0.219,0.526,0.296,0.677
172.00195,0.469,0.869,0.488,0.423,0.297,0.169,0.26,0.266,0.797,1.0,0.319,0.373
172.11773,0.786,1.0,0.522,0.306,0.205,0.133,0.127,0.26,0.937,0.827,0.342,0.358
172.21134,1.0,0.931,0.569,0.552,0.23,0.214,0.154,0.127,0.305,0.884,0.361,0.177
172.36272,0.485,0.561,0.624,0.548,0.677,0.52,0.246,0.159,0.355,1.0,0.443,0.172
172.47846,0.818,1.0,0.415,0.251,0.371,0.239,0.174,0.197,0.176,0.214,0.241,0.191
172.57138,0.389,0.5,0.41,0.239,0.277,0.303,0.193,0.196,0.358,1.0,0.67,0.195
172.70422,0.63,0.661,0.954,0.258,0.479,0.448,0.23,0.26,0.367,1.0,0.467,0.217
173.11642,0.243,0.23,0.183,0.267,0.518,0.314,0.144,0.08,0.154,1.0,0.811,0.057
173.2219,0.79,1.0,0.948,0.945,0.701,0.655,0.394,0.389,0.287,0.278,0.674,0.617
173.29546,0.908,1.0,0.63,0.489,0.462,0.421,0.235,0.163,0.15,0.533,0.35,0.33
173.45247,0.696,0.561,0.609,0.206,0.48,0.297,0.508,0.29,0.228,1.0,0.225,0.226
174.15134,0.458,0.454,0.3,0.147,0.217,0.224,0.145,0.137,0.252,1.0,0.555,0.166
174.27673,0.61,1.0,0.322,0.345,0.069,0.138,0.243,0.152,0.108,0.146,0.191,0.097
174.45356,1.0,0.931,0.456,0.496,0.217,0.175,0.439,0.27,0.254,0.884,0.649,0.178
174.62005,0.816,1.0,0.3,0.163,0.231,0.295,0.482,0.361,0.222,0.452,0.308,0.151
174.7932,0.708,0.555,1.0,0.675,0.341,0.388,0.987,0.607,0.621,0.937,0.428,0.312
175.26381,0.658,1.0,0.486,0.434,0.386,0.311,0.429,0.478,0.108,0.09,0.382,0.11
175.4156,1.0,0.821,0.467,0.315,0.293,0.275,0.599,0.646,0.308,0.309,0.162,0.25
175.73533,0.3,0.516,0.62,0.761,0.643,0.477,0.846,1.0,0.477,0.523,0.273,0.108
175.85501,0.517,0.482,0.362,0.763,0.732,0.264,0.439,1.0,0.403,0.544,0.417,0.224
176.11306,1.0,0.51,0.254,0.29,0.336,0.238,0.224,0.773,0.924,0.596,0.288,0.527
176.3785,0.632,0.556,0.392,0.364,0.219,0.264,0.209,0.111,0.316,1.0,0.163,0.141
176.64413,0.36,0.362,0.835,0.531,0.508,0.352,0.428,0.346,0.432,1.0,0.692,0.325
177.3878,0.304,0.222,0.244,0.192,0.328,0.121,0.075,0.093,0.175,1.0,0.327,0.191
177.57401,0.568,0.819,0.88,0.393,0.3,0.258,0.142,0.202,0.502,1.0,0.709,0.306
177.76059,0.173,0.187,0.19,0.108,0.161,0.108,0.069,0.094,0.117,1.0,0.198,0.111
178.12041,0.312,0.453,0.974,0.317,0.608,0.656,0.197,0.268,0.486,1.0,0.828,0.408
178.29973,0.339,0.477,0.32,0.421,0.608,0.614,0.378,0.39,0.628,1.0,0.798,0.401
178.49025,0.509,0.421,0.44,0.272,0.274,0.186,0.306,0.351,0.267,1.0,0.254,0.278
178.73061,0.407,0.43,0.631,0.347,0.577,0.427,0.292,0.467,0.992,1.0,0.477,0.321
179.42132,0.854,1.0,0.579,0.699,0.529,0.528,0.212,0.231,0.574,0.614,0.935,0.429
179.50172,0.484,0.414,0.683,0.605,0.272,0.244,0.27,0.606,1.0,0.411,0.372,0.385
180.49574,0.4,0.84,0.817,0.489,0.432,0.44,0.452,0.298,0.551,1.0,0.472,0.589
180.74444,0.632,0.41,0.535,0.23,0.503,0.34,0.246,0.414,0.68,1.0,0.756,0.311
181.44807,0.716,1.0,0.292,0.377,0.573,0.507,0.507,0.554,0.305,0.301,0.395,0.14
181.52875,0.873,0.448,0.677,0.578,0.481,0.393,0.578,0.695,1.0,0.38,0.751,0.472
182.53175,1.0,0.5,0.231,0.304,0.222,0.162,0.172,0.221,0.413,0.651,0.294,0.547
182.65451,1.0,0.721,0.696,0.437,0.432,0.461,0.607,0.894,0.342,0.743,0.804,0.481
183.10218,0.986,0.287,0.626,0.402,0.308,0.349,0.272,0.53,0.587,1.0,0.449,0.369
183.76336,0.791,1.0,0.16,0.161,0.197,0.12,0.106,0.297,0.29,0.135,0.19,0.216
183.98957,0.8,1.0,0.628,0.514,0.272,0.214,0.34,0.462,0.658,0.492,0.614,0.201
184.78925,0.946,1.0,0.255,0.259,0.347,0.13,0.19,0.223,0.163,0.091,0.054,0.393
185.04585,0.198,0.771,1.0,0.409,0.297,0.263,0.173,0.268,0.243,0.396,0.417,0.22
185.45224,0.476,0.611,0.581,0.279,0.269,0.222,0.304,0.322,1.0,0.989,0.627,0.088
185.59265,0.532,0.801,0.819,0.418,0.397,0.255,0.184,0.264,0.327,1.0,0.654,0.358
186.14916,0.809,0.793,1.0,0.204,0.313,0.135,0.156,0.226,0.485,0.925,0.191,0.367
186.49728,0.679,1.0,0.713,0.661,0.424,0.475,0.404,0.381,0.262,0.488,0.317,0.213
186.64803,0.962,0.763,0.311,0.621,0.427,0.265,0.306,0.396,0.496,1.0,0.596,0.537
186.8859,0.187,0.33,0.269,0.163,0.122,0.14,0.188,0.206,0.393,1.0,0.26,0.17
187.63478,0.79,0.777,0.579,0.32,0.468,0.43,0.312,0.342,1.0,0.871,0.611,0.42
188.61002,0.586,0.651,1.0,0.286,0.16,0.311,0.195,0.113,0.167,0.375,0.452,0.354
188.94005,0.277,0.425,0.397,0.258,0.264,0.297,0.581,0.491,0.774,1.0,0.401,0.269
193.28481,1.0,0.607,0.14,0.271,0.142,0.089,0.254,0.088,0.076,0.241,0.207,0.059
194.51306,1.0,0.557,0.038,0.132,0.118,0.094,0.432,0.244,0.162,0.154,0.081,0.032
195.38485,1.0,0.336,0.033,0.071,0.057,0.021,0.103,0.075,0.074,0.034,0.038,0.19
195.69896,1.0,0.67,0.12,0.124,0.105,0.053,0.228,0.055,0.071,0.057,0.044,0.038
196.69565,1.0,0.677,0.253,0.125,0.244,0.275,0.226,0.193,0.107,0.104,0.242,0.354
196.8337,1.0,0.86,0.184,0.04,0.043,0.023,0.079,0.281,0.15,0.106,0.067,0.116
197.09515,0.93,1.0,0.463,0.344,0.339,0.088,0.357,0.184,0.219,0.224,0.188,0.203
198.02499,1.0,0.666,0.051,0.048,0.031,0.037,0.119,0.27,0.094,0.03,0.034,0.031
198.33488,1.0,0.842,0.231,0.026,0.03,0.028,0.083,0.125,0.24,0.06,0.067,0.28
198.56376,1.0,0.825,0.203,0.248,0.219,0.134,0.22,0.11,0.177,0.298,0.239,0.216
199.10281,0.938,1.0,0.432,0.106,0.099,0.09,0.209,0.18,0.053,0.175,0.131,0.271
199.34558,1.0,0.985,0.171,0.291,0.372,0.211,0.578,0.484,0.175,0.123,0.13,0.137
199.8693,1.0,0.912,0.434,0.137,0.111,0.174,0.268,0.157,0.128,0.229,0.17,0.214
200.72676,1.0,0.874,0.476,0.141,0.118,0.128,0.286,0.389,0.271,0.236,0.204,0.214
202.19896,0.776,1.0,0.508,0.452,0.494,0.305,0.212,0.356,0.392,0.425,0.3,0.315
202.62435,1.0,0.93,0.438,0.275,0.494,0.101,0.283,0.294,0.201,0.113,0.176,0.189
203.06231,1.0,0.77,0.809,0.28,0.204,0.156,0.142,0.446,0.387,0.497,0.255,0.269
203.38812,1.0,0.494,0.16,0.085,0.062,0.084,0.235,0.249,0.224,0.166,0.156,0.086
203.93383,1.0,0.791,0.388,0.289,0.372,0.231,0.225,0.358,0.502,0.249,0.296,0.328
204.74975,0.802,1.0,0.325,0.149,0.192,0.156,0.104,0.294,0.104,0.53,0.21,0.255
204.94989,0.755,1.0,0.371,0.353,0.463,0.233,0.577,0.727,0.627,0.504,0.306,0.141
205.50512,1.0,0.673,0.233,0.075,0.055,0.042,0.255,0.21,0.105,0.098,0.103,0.128
205.78512,1.0,0.59,0.358,0.064,0.053,0.093,0.411,0.507,0.281,0.103,0.119,0.176
206.15342,1.0,0.8,0.493,0.364,0.269,0.361,0.491,0.39,0.369,0.627,0.43,0.371
206.77311,1.0,0.674,0.23,0.038,0.039,0.078,0.531,0.45,0.217,0.062,0.07,0.162
207.00662,1.0,0.936,0.148,0.193,0.094,0.205,0.205,0.245,0.413,0.171,0.131,0.238
207.3781,1.0,0.919,0.239,0.258,0.304,0.264,0.618,0.819,0.394,0.234,0.177,0.14
208.24789,0.939,0.744,1.0,0.303,0.315,0.078,0.276,0.258,0.467,0.514,0.546,0.231
208.5971,1.0,0.617,0.096,0.089,0.117,0.167,0.334,0.228,0.233,0.122,0.074,0.083
209.03678,1.0,0.915,0.705,0.836,0.381,0.39,0.389,0.388,0.383,0.39,0.709,0.552
209.10159,0.983,1.0,0.315,0.331,0.215,0.319,0.812,0.428,0.155,0.285,0.133,0.521
209.26435,0.776,1.0,0.761,0.171,0.562,0.534,0.89,0.231,0.476,0.163,0.085,0.594
209.60068,1.0,0.604,0.108,0.106,0.086,0.059,0.101,0.067,0.066,0.027,0.074,0.094
209.90762,1.0,0.954,0.157,0.092,0.147,0.231,0.253,0.154,0.196,0.137,0.119,0.136
210.3015,0.612,1.0,0.129,0.109,0.18,0.479,0.56,0.136,0.351,0.2,0.177,0.098
210.6629,1.0,0.766,0.143,0.075,0.106,0.127,0.285,0.238,0.134,0.078,0.097,0.087
211.10444,0.969,1.0,0.145,0.201,0.149,0.124,0.166,0.18,0.136,0.118,0.244,0.062
211.2468,0.432,0.142,0.185,0.259,0.142,0.269,0.117,0.05,0.634,0.308,1.0,0.175
211.53973,1.0,0.939,0.383,0.15,0.143,0.113,0.346,0.672,0.208,0.164,0.31,0.211
212.10091,0.899,1.0,0.363,0.977,0.331,0.418,0.463,0.419,0.343,0.448,0.208,0.185
212.5263,0.578,1.0,0.249,0.157,0.172,0.107,0.236,0.289,0.474,0.197,0.173,0.091
212.80993,1.0,0.884,0.065,0.067,0.174,0.105,0.183,0.117,0.158,0.072,0.07,0.076
213.32454,0.953,1.0,0.244,0.161,0.262,0.166,0.633,0.688,0.303,0.128,0.156,0.12
213.67043,1.0,0.75,0.225,0.17,0.163,0.122,0.428,0.235,0.449,0.193,0.176,0.153
214.89392,1.0,0.764,0.063,0.135,0.139,0.108,0.325,0.141,0.147,0.111,0.077,0.059
215.44236,1.0,0.588,0.324,0.483,0.439,0.181,0.483,0.288,0.668,0.477,0.251,0.171
215.85819,0.629,1.0,0.82,0.656,0.406,0.274,0.394,0.52,0.386,0.258,0.149,0.183
215.9917,1.0,0.644,0.099,0.018,0.056,0.066,0.211,0.23,0.051,0.054,0.051,0.111
216.23769,0.866,0.657,0.154,0.152,0.295,0.243,0.453,1.0,0.446,0.104,0.082,0.103
216.61506,1.0,0.957,0.233,0.309,0.307,0.274,0.241,0.315,0.862,0.647,0.058,0.211
216.91542,0.332,0.379,0.306,0.328,0.334,0.365,0.307,0.288,0.953,1.0,0.16,0.092
217.04458,1.0,0.75,0.078,0.137,0.231,0.091,0.212,0.099,0.191,0.165,0.1,0.043
217.8785,1.0,0.677,0.604,0.439,0.177,0.164,0.203,0.257,0.285,0.267,0.156,0.238
218.0581,0.333,1.0,0.325,0.263,0.227,0.185,0.367,0.487,0.359,0.296,0.17,0.062
218.18576,1.0,0.751,0.172,0.168,0.244,0.134,0.417,0.459,0.339,0.148,0.129,0.062
218.81107,1.0,0.656,0.135,0.193,0.305,0.314,0.314,0.329,0.232,0.109,0.241,0.198
218.95583,1.0,0.739,0.221,0.133,0.147,0.115,0.212,0.095,0.163,0.13,0.117,0.077
219.90449,0.869,1.0,0.236,0.187,0.101,0.115,0.113,0.115,0.177,0.185,0.194,0.016
220.04776,1.0,0.864,0.556,0.438,0.408,0.432,0.386,0.294,0.162,0.175,0.241,0.305
220.15569,0.692,1.0,0.357,0.143,0.345,0.223,0.202,0.203,0.868,0.331,0.073,0.252
220.45383,1.0,0.715,0.148,0.058,0.038,0.067,0.074,0.181,0.123,0.027,0.032,0.154
220.70231,1.0,0.507,0.135,0.097,0.097,0.037,0.154,0.25,0.177,0.088,0.058,0.081
220.97116,1.0,0.75,0.445,0.28,0.309,0.125,0.198,0.154,0.305,0.248,0.282,0.225
221.98268,0.974,1.0,0.424,0.281,0.274,0.127,0.35,0.184,0.391,0.247,0.187,0.168
222.47596,0.683,0.625,0.373,0.406,0.232,0.208,0.309,0.222,1.0,0.546,0.238,0.375
222.70286,1.0,0.797,0.213,0.091,0.042,0.073,0.24,0.348,0.199,0.085,0.071,0.148
222.96934,1.0,0.886,0.145,0.332,0.196,0.221,0.572,0.83,0.559,0.654,0.32,0.215
223.44109,0.742,1.0,0.704,0.66,0.402,0.195,0.313,0.702,0.777,0.543,0.36,0.403
223.93324,1.0,0.64,0.278,0.147,0.211,0.107,0.177,0.22,0.288,0.15,0.066,0.09
224.30907,0.9,1.0,0.374,0.424,0.519,0.138,0.193,0.201,0.598,0.36,0.183,0.139
225.05342,1.0,0.495,0.178,0.081,0.122,0.097,0.249,0.544,0.194,0.074,0.026,0.059
225.46735,1.0,0.852,0.497,0.255,0.192,0.129,0.242,0.469,0.28,0.217,0.055,0.17
225.68921,1.0,0.868,0.459,0.36,0.229,0.351,0.195,0.067,0.57,0.334,0.177,0.349
225.89011,1.0,0.585,0.247,0.408,0.48,0.256,0.29,0.492,0.793,0.314,0.284,0.958
226.25692,0.973,1.0,0.088,0.16,0.38,0.139,0.513,0.089,0.248,0.094,0.136,0.107
226.9902,0.707,0.471,0.188,0.472,0.777,0.321,0.521,0.498,1.0,0.267,0.359,0.179
227.40726,1.0,0.749,0.126,0.018,0.043,0.024,0.095,0.095,0.063,0.024,0.026,0.112
227.63029,1.0,0.696,0.103,0.112,0.166,0.153,0.407,0.335,0.262,0.268,0.08,0.059
228.03615,1.0,0.809,0.71,0.318,0.533,0.14,0.248,0.268,0.261,0.684,0.575,0.179
228.56503,1.0,0.751,0.133,0.116,0.212,0.071,0.246,0.116,0.171,0.07,0.063,0.042
229.18122,0.97,1.0,0.258,0.416,0.544,0.598,0.533,0.186,0.575,0.234,0.213,0.198
229.77338,1.0,0.883,0.174,0.167,0.048,0.046,0.072,0.075,0.055,0.054,0.184,0.048
229.93175,1.0,0.708,0.113,0.136,0.162,0.28,0.688,0.51,0.222,0.103,0.149,0.117
230.3458,1.0,0.598,0.56,0.55,0.393,0.392,0.289,0.289,0.104,0.1,0.704,0.539
230.43066,1.0,0.785,0.264,0.293,0.378,0.29,0.272,0.177,0.629,0.314,0.283,0.261
230.85465,0.803,1.0,0.732,0.35,0.304,0.447,0.269,0.285,0.259,0.251,0.088,0.234
231.01642,1.0,0.427,0.084,0.023,0.035,0.021,0.034,0.018,0.093,0.052,0.052,0.052
231.34853,1.0,0.736,0.303,0.341,0.476,0.344,0.514,0.156,0.507,0.298,0.215,0.281
231.96136,0.597,0.9,1.0,0.149,0.248,0.169,0.867,0.7,0.539,0.379,0.593,0.458
232.17896,1.0,0.744,0.152,0.24,0.296,0.14,0.494,0.347,0.223,0.348,0.202,0.124
232.85315,1.0,0.996,0.555,0.17,0.207,0.105,0.064,0.088,0.219,0.116,0.07,0.237
233.15356,0.444,1.0,0.106,0.085,0.018,0.017,0.06,0.058,0.1,0.112,0.011,0.024
233.31846,1.0,0.808,0.195,0.187,0.05,0.037,0.042,0.044,0.048,0.044,0.046,0.019
233.48839,1.0,0.871,0.329,0.301,0.217,0.114,0.409,0.088,0.297,0.202,0.111,0.032
234.46971,1.0,0.575,0.072,0.189,0.156,0.076,0.311,0.068,0.057,0.077,0.051,0.029
235.60172,1.0,0.513,0.045,0.167,0.11,0.058,0.34,0.066,0.044,0.063,0.054,0.02
236.77274,1.0,0.495,0.023,0.165,0.117,0.096,0.528,0.079,0.048,0.079,0.055,0.022
237.92181,1.0,0.473,0.025,0.151,0.116,0.059,0.317,0.073,0.051,0.045,0.04,0.019
239.18372,1.0,0.721,0.142,0.148,0.114,0.095,0.336,0.075,0.069,0.031,0.052,0.027
239.84068,0.672,0.592,1.0,0.361,0.244,0.159,0.29,0.093,0.045,0.15,0.05,0.033
240.30249,1.0,0.595,0.156,0.1,0.092,0.088,0.38,0.12,0.104,0.102,0.07,0.039
240.95134,0.736,0.774,1.0,0.08,0.016,0.027,0.104,0.01,0.021,0.307,0.048,0.059
241.27995,0.145,0.507,1.0,0.112,0.011,0.015,0.039,0.007,0.027,0.162,0.037,0.027
241.58671,1.0,0.482,0.291,0.136,0.109,0.079,0.27,0.075,0.07,0.123,0.053,0.029
242.44526,0.214,0.61,1.0,0.151,0.016,0.031,0.108,0.008,0.011,0.05,0.018,0.041
242.73265,0.229,1.0,0.101,0.062,0.086,0.097,0.057,0.023,0.086,0.105,0.124,0.006
242.89025,1.0,0.275,0.423,0.024,0.021,0.023,0.048,0.013,0.007,0.046,0.016,0.023
243.23265,0.808,1.0,0.193,0.17,0.183,0.186,0.17,0.148,0.057,0.068,0.112,0.006
243.39728,0.444,0.388,1.0,0.355,0.209,0.104,0.303,0.041,0.037,0.221,0.078,0.014
244.04154,1.0,0.429,0.073,0.24,0.156,0.077,0.401,0.078,0.056,0.04,0.027,0.012
245.19946,1.0,0.338,0.038,0.312,0.119,0.074,0.39,0.047,0.039,0.027,0.029,0.01
246.37873,1.0,0.704,0.063,0.377,0.103,0.05,0.276,0.124,0.046,0.064,0.077,0.012
247.62286,1.0,0.388,0.025,0.251,0.137,0.09,0.401,0.044,0.033,0.043,0.041,0.015
248.81664,1.0,0.509,0.038,0.195,0.119,0.052,0.173,0.058,0.033,0.055,0.055,0.021
249.49016,0.943,1.0,0.825,0.252,0.028,0.106,0.253,0.043,0.044,0.201,0.083,0.234
249.73156,0.111,0.586,1.0,0.287,0.02,0.02,0.083,0.01,0.036,0.218,0.052,0.025
249.97805,1.0,0.556,0.04,0.048,0.012,0.02,0.078,0.027,0.004,0.027,0.033,0.065
250.26812,0.498,0.352,1.0,0.275,0.13,0.071,0.329,0.056,0.026,0.341,0.051,0.017
251.01342,0.529,1.0,0.616,0.481,0.437,0.465,0.412,0.307,0.152,0.192,0.106,0.016
251.13873,0.32,1.0,0.703,0.386,0.319,0.379,0.251,0.102,0.036,0.159,0.105,0.014
251.28667,1.0,0.622,0.302,0.101,0.092,0.073,0.373,0.079,0.105,0.076,0.078,0.03
251.91914,0.589,1.0,0.124,0.095,0.102,0.116,0.149,0.108,0.096,0.111,0.156,0.004
252.04698,0.073,0.172,1.0,0.194,0.106,0.036,0.189,0.038,0.018,0.12,0.032,0.007
252.56444,1.0,0.536,0.375,0.286,0.139,0.077,0.456,0.061,0.108,0.255,0.086,0.026
253.75542,1.0,0.497,0.055,0.127,0.117,0.061,0.411,0.081,0.1,0.069,0.052,0.017
254.95587,1.0,0.741,0.088,0.188,0.081,0.036,0.2,0.084,0.036,0.073,0.074,0.015
255.83651,0.49,0.32,0.33,1.0,0.647,0.144,0.596,0.302,0.038,0.177,0.175,0.021
256.23859,1.0,0.676,0.052,0.384,0.079,0.035,0.311,0.136,0.043,0.054,0.074,0.023
257.56404,1.0,0.543,0.038,0.327,0.209,0.084,0.559,0.07,0.096,0.077,0.049,0.018
258.76703,1.0,0.59,0.052,0.061,0.076,0.116,0.291,0.119,0.065,0.046,0.042,0.039
259.20249,1.0,0.912,0.167,0.021,0.028,0.08,0.158,0.044,0.004,0.029,0.013,0.217
259.43537,1.0,0.896,0.157,0.036,0.035,0.116,0.222,0.05,0.008,0.069,0.025,0.126
259.67365,0.712,1.0,0.515,0.5,0.512,0.519,0.451,0.453,0.286,0.355,0.162,0.006
259.84893,0.625,1.0,0.652,0.605,0.433,0.479,0.076,0.075,0.213,0.322,0.239,0.017
260.02299,1.0,0.594,0.052,0.094,0.084,0.099,0.251,0.124,0.066,0.067,0.047,0.053
260.40875,1.0,0.912,0.279,0.269,0.152,0.161,0.104,0.104,0.003,0.023,0.296,0.004
260.54082,1.0,0.854,0.137,0.45,0.37,0.321,0.587,0.157,0.114,0.376,0.248,0.085
260.92095,1.0,0.915,0.08,0.02,0.04,0.185,0.25,0.039,0.022,0.513,0.127,0.094
261.22494,1.0,0.597,0.035,0.079,0.093,0.1,0.263,0.107,0.069,0.052,0.056,0.038
261.67156,1.0,0.594,0.096,0.712,0.513,0.113,0.429,0.085,0.095,0.438,0.202,0.025
262.42104,1.0,0.832,0.181,0.012,0.01,0.04,0.073,0.037,0.008,0.035,0.043,0.15
262.64245,1.0,0.959,0.278,0.276,0.212,0.206,0.148,0.148,0.125,0.169,0.366,0.006
262.76086,1.0,0.636,0.025,0.012,0.017,0.042,0.085,0.011,0.005,0.31,0.054,0.046
263.08141,0.562,0.609,0.114,0.109,0.201,0.201,0.083,0.084,0.032,1.0,0.243,0.004
263.24503,0.077,0.073,0.012,0.122,0.086,0.025,0.089,0.036,0.008,1.0,0.463,0.022
263.72644,1.0,0.687,0.149,0.049,0.044,0.103,0.19,0.076,0.064,0.114,0.089,0.08
264.09823,1.0,0.634,0.033,0.008,0.02,0.058,0.1,0.008,0.003,0.242,0.084,0.053
264.42259,0.988,0.739,0.224,0.026,0.039,0.077,0.165,0.055,0.018,1.0,0.48,0.269
264.64354,0.318,0.307,0.303,0.298,0.224,0.229,0.2,0.199,0.17,1.0,0.42,0.161
264.72476,0.177,0.236,0.127,0.121,0.144,0.146,0.034,0.035,0.018,1.0,0.283,0.002
264.90517,0.054,0.107,0.061,0.057,0.079,0.081,0.039,0.039,0.031,1.0,0.433,0.001
265.07905,1.0,0.916,0.332,0.336,0.194,0.192,0.105,0.105,0.161,0.237,0.451,0.074
265.18971,1.0,0.823,0.304,0.3,0.182,0.183,0.177,0.175,0.123,0.209,0.413,0.016
265.33397,0.252,0.157,0.011,0.098,0.063,0.065,0.2,0.03,0.028,0.146,1.0,0.174
266.27447,0.057,0.096,0.018,0.005,0.016,1.0,0.037,0.011,0.009,0.105,0.131,0.028
266.54172,1.0,0.648,0.045,0.063,0.077,0.124,0.286,0.176,0.068,0.038,0.048,0.049
266.95442,1.0,0.84,0.076,0.072,0.017,0.023,0.049,0.214,0.032,0.029,0.303,0.011
267.10476,0.626,0.536,0.042,0.49,0.339,0.154,0.704,1.0,0.175,0.091,0.291,0.039
267.75515,1.0,0.599,0.052,0.236,0.144,0.078,0.464,0.15,0.101,0.085,0.135,0.027
269.13011,1.0,0.72,0.16,0.161,0.044,0.044,0.051,0.051,0.047,0.046,0.043,0.025
269.31116,1.0,0.711,0.054,0.051,0.121,0.114,0.133,0.133,0.051,0.051,0.11,0.006
269.49283,1.0,0.743,0.264,0.011,0.019,0.049,0.068,0.014,0.005,0.013,0.013,0.22
269.71129,1.0,0.859,0.961,0.068,0.016,0.1,0.14,0.046,0.017,0.029,0.024,0.3
269.91483,0.842,0.873,1.0,0.446,0.134,0.136,0.082,0.088,0.077,0.078,0.118,0.008
270.07088,0.494,0.421,1.0,0.275,0.112,0.114,0.155,0.159,0.185,0.191,0.185,0.009
270.19351,0.331,0.286,1.0,0.432,0.256,0.257,0.204,0.209,0.184,0.188,0.124,0.125
270.27995,0.523,0.591,1.0,0.214,0.036,0.031,0.011,0.01,0.009,0.019,0.029,0.131
270.60481,1.0,0.419,0.415,0.372,0.12,0.121,0.338,0.34,0.326,0.326,0.484,0.456
270.6751,1.0,0.651,0.212,0.177,0.11,0.107,0.109,0.111,0.157,0.158,0.302,0.01
270.77927,1.0,0.184,0.021,0.062,0.037,0.023,0.085,0.017,0.008,0.016,0.007,0.059
271.40617,1.0,0.621,0.333,0.301,0.312,0.477,0.212,0.219,0.11,0.109,0.043,0.041
271.55737,0.626,0.364,0.265,0.237,0.276,1.0,0.151,0.15,0.027,0.029,0.076,0.028
271.6795,0.089,0.047,0.011,0.004,0.018,1.0,0.09,0.023,0.002,0.002,0.001,0.005
271.94644,1.0,0.531,0.052,0.265,0.175,0.141,0.549,0.907,0.141,0.15,0.134,0.034
273.27034,1.0,0.544,0.041,0.355,0.205,0.083,0.529,0.152,0.116,0.207,0.13,0.025
274.66621,1.0,0.735,0.201,0.022,0.007,0.028,0.082,0.039,0.007,0.019,0.024,0.101
274.90186,1.0,0.843,0.426,0.036,0.022,0.046,0.088,0.081,0.003,0.007,0.011,0.266
275.09293,0.866,0.813,1.0,0.302,0.241,0.229,0.428,0.552,0.041,0.107,0.116,0.081
275.47546,0.528,0.438,0.277,0.15,0.069,0.1,0.21,1.0,0.212,0.215,0.157,0.015
275.61492,0.236,0.516,1.0,0.349,0.191,0.203,0.085,0.823,0.128,0.075,0.068,0.057
275.69079,0.052,0.053,0.233,0.112,0.086,0.035,0.027,1.0,0.264,0.056,0.032,0.011
276.07306,1.0,0.567,0.269,0.07,0.066,0.082,0.167,0.162,0.095,0.157,0.067,0.048
276.48535,0.639,0.591,1.0,0.441,0.05,0.049,0.182,0.23,0.179,0.737,0.5,0.482
276.56667,0.35,0.231,0.334,0.045,0.014,0.025,0.045,0.038,0.028,1.0,0.103,0.023
276.90993,0.168,0.238,1.0,0.089,0.126,0.073,0.026,0.018,0.017,0.281,0.033,0.032
277.14698,0.604,0.639,1.0,0.304,0.828,0.999,0.116,0.038,0.038,0.169,0.142,0.314
277.54812,1.0,0.719,0.326,0.16,0.11,0.277,0.17,0.148,0.081,0.088,0.212,0.008
277.69392,1.0,0.828,0.219,0.105,0.116,0.417,0.246,0.175,0.099,0.109,0.175,0.008
277.83805,0.793,0.613,1.0,0.081,0.052,0.911,0.269,0.032,0.007,0.033,0.021,0.232
278.03052,0.581,0.606,0.686,0.187,0.266,1.0,0.383,0.233,0.115,0.185,0.026,0.008
278.2098,0.366,0.402,1.0,0.114,0.041,0.51,0.13,0.021,0.011,0.06,0.017,0.069
278.41202,0.443,0.272,1.0,0.082,0.056,0.68,0.083,0.055,0.009,0.088,0.028,0.044
278.6971,1.0,0.585,0.237,0.056,0.07,0.106,0.243,0.115,0.069,0.049,0.034,0.037
279.14522,0.805,0.807,1.0,0.251,0.217,0.212,0.415,0.147,0.039,0.153,0.064,0.075
279.57433,0.434,0.245,1.0,0.266,0.184,0.091,0.093,0.079,0.018,0.066,0.033,0.034
280.02086,1.0,0.465,0.158,0.018,0.025,0.026,0.075,0.021,0.004,0.018,0.034,0.034
280.36512,1.0,0.833,0.701,0.175,0.36,0.238,0.392,0.071,0.053,0.071,0.122,0.095
280.7463,0.388,0.37,0.736,0.113,1.0,0.289,0.043,0.012,0.012,0.043,0.205,0.067
281.03116,0.096,0.102,0.306,0.024,1.0,0.426,0.017,0.005,0.004,0.027,0.059,0.026
281.31537,1.0,0.88,0.542,0.297,0.224,0.292,0.076,0.044,0.101,0.104,0.303,0.071
281.44898,1.0,0.59,0.268,0.041,0.122,0.998,0.127,0.011,0.006,0.014,0.052,0.078
281.73959,0.434,0.36,0.378,0.023,0.028,1.0,0.342,0.012,0.004,0.015,0.059,0.085
281.98277,0.194,0.276,1.0,0.233,0.156,0.55,0.179,0.022,0.019,0.094,0.306,0.035
282.49374,1.0,0.999,0.748,0.18,0.102,0.153,0.054,0.027,0.025,0.062,0.581,0.578
282.8185,1.0,0.681,0.421,0.044,0.056,0.064,0.062,0.015,0.009,0.065,0.079,0.203
283.05102,1.0,0.805,0.902,0.095,0.043,0.093,0.083,0.021,0.018,0.335,0.102,0.17
283.31819,0.44,0.487,0.526,0.063,0.045,0.035,0.044,0.03,0.026,1.0,0.068,0.159
283.50993,0.18,0.329,1.0,0.214,0.101,0.096,0.08,0.083,0.072,0.805,0.066,0.023
283.62567,0.377,0.358,0.785,0.227,0.239,0.127,0.095,0.167,0.229,1.0,0.16,0.183
284.09565,1.0,0.692,0.266,0.103,0.122,0.113,0.178,0.472,0.075,0.128,0.108,0.016
284.27061,0.362,0.293,0.633,0.278,0.137,0.076,0.307,1.0,0.136,0.159,0.041,0.039
285.32041,1.0,0.615,0.307,0.083,0.085,0.098,0.263,0.145,0.068,0.062,0.039,0.055
285.73669,0.794,0.769,1.0,0.311,0.305,0.183,0.374,0.12,0.071,0.263,0.068,0.081
286.19687,0.181,0.174,1.0,0.266,0.201,0.094,0.189,0.06,0.033,0.132,0.032,0.053
286.62168,1.0,0.62,0.272,0.066,0.047,0.092,0.207,0.091,0.064,0.076,0.059,0.067
287.05066,1.0,0.669,0.373,0.03,0.062,0.074,0.087,0.01,0.024,0.216,0.044,0.113
287.37546,0.887,1.0,0.746,0.444,0.483,0.409,0.215,0.216,0.112,0.493,0.242,0.045
287.52054,0.2,0.236,1.0,0.079,0.108,0.041,0.034,0.013,0.027,0.438,0.077,0.095
287.73034,0.167,0.132,0.5,0.044,0.077,0.025,0.035,0.013,0.053,1.0,0.039,0.084
287.95646,1.0,0.629,0.276,0.068,0.079,0.103,0.273,0.222,0.142,0.175,0.052,0.073
288.3459,0.432,0.412,0.603,0.285,0.206,0.09,0.407,1.0,0.096,0.327,0.076,0.052
289.08834,1.0,0.512,0.374,0.098,0.086,0.103,0.256,0.12,0.06,0.094,0.069,0.065
289.89392,0.505,0.392,1.0,0.077,0.138,0.05,0.063,0.095,0.035,0.147,0.045,0.138
290.12172,0.271,0.292,1.0,0.409,0.424,0.11,0.208,0.115,0.042,0.34,0.044,0.045
290.57501,1.0,0.612,0.308,0.119,0.119,0.085,0.412,0.076,0.093,0.085,0.053,0.039
291.26658,1.0,0.869,0.675,0.237,0.396,0.36,0.132,0.136,0.093,0.077,0.188,0.041
291.4522,0.164,0.214,1.0,0.287,0.217,0.067,0.113,0.022,0.034,0.217,0.045,0.042
291.89161,1.0,0.586,0.213,0.067,0.063,0.098,0.217,0.094,0.062,0.09,0.046,0.056
292.32544,0.694,0.58,1.0,0.247,0.277,0.156,0.324,0.135,0.049,0.19,0.059,0.074
292.79737,0.162,0.152,1.0,0.236,0.169,0.062,0.106,0.2,0.036,0.205,0.059,0.069
293.25637,1.0,0.861,0.52,0.068,0.033,0.066,0.09,0.077,0.013,0.022,0.039,0.211
293.45991,1.0,0.816,0.37,0.174,0.278,0.261,0.245,0.389,0.09,0.087,0.079,0.01
293.63896,0.766,0.856,1.0,0.155,0.04,0.021,0.038,0.26,0.031,0.031,0.015,0.182
293.82576,0.662,0.617,0.937,0.117,0.097,0.099,0.125,1.0,0.077,0.318,0.03,0.125
294.10372,0.17,0.374,1.0,0.214,0.155,0.14,0.101,0.408,0.05,0.068,0.016,0.026
294.2541,0.09,0.118,0.693,0.06,0.046,0.023,0.022,1.0,0.063,0.069,0.013,0.034
294.55673,1.0,0.74,0.468,0.062,0.075,0.165,0.271,0.541,0.092,0.113,0.106,0.151
295.0093,0.435,0.368,0.549,0.115,0.091,0.123,0.264,1.0,0.096,0.075,0.031,0.035
295.46249,0.042,0.058,0.233,0.141,0.083,0.033,0.054,1.0,0.166,0.116,0.026,0.026
296.47832,0.067,0.638,1.0,0.08,0.051,0.034,0.073,0.139,0.187,0.449,0.075,0.033
296.84512,0.034,0.068,0.638,0.241,0.114,0.052,0.109,0.051,0.025,1.0,0.045,0.019
297.88834,0.028,0.243,0.451,0.126,0.053,0.026,0.028,0.022,0.044,1.0,0.123,0.014
298.12109,0.015,0.151,0.258,0.078,0.019,0.007,0.026,0.011,0.035,1.0,0.069,0.007
298.35882,0.013,0.127,0.262,0.079,0.047,0.045,0.032,0.014,0.009,1.0,0.041,0.004
298.53306,0.052,0.143,0.186,0.035,0.014,0.017,0.031,0.012,0.028,1.0,0.056,0.007
298.73025,0.044,0.144,0.525,0.043,0.025,0.013,0.045,0.006,0.017,1.0,0.09,0.013
299.06712,0.041,0.105,1.0,0.298,0.167,0.02,0.08,0.035,0.023,0.867,0.051,0.021
299.66517,0.03,0.15,1.0,0.234,0.141,0.027,0.064,0.037,0.027,0.596,0.026,0.019
300.12404,0.022,0.549,1.0,0.256,0.03,0.028,0.058,0.013,0.084,0.872,0.195,0.013
300.36766,0.038,0.266,1.0,0.548,0.399,0.076,0.222,0.05,0.087,0.919,0.133,0.025
300.82091,0.049,0.11,0.934,0.362,0.22,0.033,0.14,0.117,0.059,1.0,0.068,0.029
301.36594,0.024,0.117,1.0,0.239,0.18,0.029,0.065,0.059,0.019,0.227,0.023,0.018
301.8946,0.039,0.13,1.0,0.241,0.154,0.026,0.069,0.046,0.02,0.33,0.028,0.018
302.37179,0.221,0.64,1.0,0.289,0.247,0.238,0.144,0.092,0.013,0.109,0.017,0.014
302.51138,0.073,0.388,1.0,0.083,0.025,0.026,0.046,0.022,0.034,0.25,0.04,0.03
302.81764,0.025,0.323,1.0,0.164,0.028,0.017,0.033,0.007,0.029,0.159,0.042,0.021
303.0317,0.023,0.1,1.0,0.307,0.233,0.034,0.059,0.034,0.036,0.335,0.03,0.023
303.65061,0.03,0.17,1.0,0.254,0.179,0.029,0.081,0.039,0.025,0.307,0.028,0.01
304.14694,0.015,0.088,1.0,0.181,0.132,0.015,0.045,0.01,0.01,0.173,0.019,0.009
304.80571,0.152,1.0,0.23,0.166,0.146,0.14,0.039,0.015,0.007,0.088,0.009,0.005
304.9834,0.082,0.238,1.0,0.43,0.312,0.04,0.145,0.068,0.082,0.758,0.09,0.022
305.46413,0.13,0.639,1.0,0.166,0.05,0.059,0.155,0.066,0.086,0.506,0.139,0.029
305.74957,0.281,1.0,0.314,0.248,0.205,0.192,0.167,0.093,0.064,0.143,0.015,0.007
305.91524,0.038,0.126,1.0,0.269,0.196,0.027,0.072,0.038,0.036,0.229,0.034,0.017
306.39569,0.043,0.197,1.0,0.373,0.26,0.046,0.109,0.044,0.037,0.194,0.029,0.036
306.81973,0.041,0.161,1.0,0.215,0.123,0.025,0.059,0.036,0.062,0.09,0.02,0.018
307.25678,0.028,0.11,1.0,0.188,0.106,0.023,0.065,0.034,0.023,0.205,0.02,0.014
308.20417,0.012,0.335,1.0,0.035,0.018,0.01,0.02,0.011,0.011,0.111,0.02,0.007
308.55982,0.012,0.11,1.0,0.26,0.167,0.026,0.063,0.032,0.039,0.138,0.019,0.014
309.06653,0.077,0.278,0.768,1.0,0.706,0.132,0.278,0.207,0.122,0.814,0.095,0.058
309.48168,0.018,0.154,1.0,0.219,0.132,0.025,0.051,0.032,0.026,0.231,0.018,0.009
309.98975,0.019,0.047,1.0,0.243,0.116,0.025,0.053,0.027,0.019,0.257,0.019,0.013
311.32893,0.08,0.194,1.0,0.538,0.385,0.034,0.168,0.105,0.051,0.299,0.043,0.048
312.24975,0.084,0.335,1.0,0.105,0.015,0.014,0.061,0.011,0.018,0.087,0.025,0.021
312.52317,0.085,0.727,1.0,0.288,0.046,0.036,0.062,0.025,0.044,0.218,0.059,0.024
312.73175,0.038,0.12,1.0,0.247,0.138,0.028,0.069,0.045,0.019,0.124,0.016,0.008
313.17365,0.032,0.155,1.0,0.297,0.204,0.05,0.116,0.047,0.034,0.261,0.029,0.016
313.64073,0.071,0.528,1.0,0.22,0.026,0.034,0.036,0.019,0.036,0.388,0.106,0.011
313.91601,0.195,1.0,0.422,0.306,0.251,0.27,0.093,0.06,0.011,0.114,0.047,0.012
314.07823,0.158,0.827,1.0,0.174,0.028,0.028,0.061,0.017,0.018,0.145,0.074,0.02
314.31061,0.097,0.763,1.0,0.406,0.087,0.025,0.067,0.04,0.201,0.603,0.264,0.024
314.50689,0.043,0.099,1.0,0.297,0.161,0.037,0.071,0.04,0.025,0.279,0.028,0.014
315.41224,0.053,0.084,1.0,0.423,0.29,0.06,0.149,0.066,0.045,0.337,0.039,0.024
316.26399,0.117,0.191,0.575,1.0,0.695,0.12,0.227,0.101,0.114,0.97,0.107,0.047
316.77252,0.127,0.141,0.533,0.806,0.555,0.073,0.211,0.158,0.094,1.0,0.061,0.03
317.23946,0.066,0.21,1.0,0.487,0.307,0.093,0.154,0.06,0.087,0.745,0.071,0.024
317.68027,0.057,0.22,1.0,0.426,0.324,0.046,0.125,0.06,0.104,0.248,0.031,0.021
318.29066,0.014,0.181,1.0,0.187,0.102,0.021,0.044,0.022,0.02,0.141,0.013,0.009
318.72875,0.023,0.11,1.0,0.22,0.11,0.023,0.057,0.02,0.037,0.266,0.02,0.011
319.76943,0.064,0.185,1.0,0.643,0.403,0.049,0.12,0.082,0.051,0.716,0.062,0.026
320.67293,0.038,0.101,1.0,0.356,0.136,0.031,0.09,0.046,0.031,0.264,0.034,0.019
322.68844,0.014,0.102,1.0,0.155,0.091,0.01,0.021,0.007,0.009,0.09,0.008,0.008
323.26413,0.025,0.09,1.0,0.155,0.06,0.013,0.057,0.032,0.045,0.198,0.014,0.008
330.69669,0.026,0.072,1.0,0.269,0.131,0.023,0.07,0.043,0.023,0.294,0.028,0.015
352.0098,0.331,1.0,0.13,0.108,0.146,0.142,0.103,0.069,0.057,0.092,0.075,0.123
352.31805,0.176,1.0,0.115,0.058,0.094,0.083,0.058,0.092,0.112,0.108,0.085,0.126
352.54834,0.386,1.0,0.134,0.094,0.133,0.102,0.124,0.112,0.115,0.093,0.108,0.164
352.74009,0.412,1.0,0.233,0.184,0.201,0.213,0.19,0.235,0.2,0.223,0.199,0.209
353.01868,0.499,1.0,0.383,0.317,0.311,0.246,0.363,0.315,0.345,0.364,0.363,0.388
353.22789,0.526,1.0,0.552,0.519,0.419,0.412,0.55,0.474,0.527,0.462,0.437,0.415
353.42517,0.975,1.0,0.914,0.853,0.788,0.899,0.469,0.437,0.523,0.576,0.521,0.429
353.51787,0.731,1.0,0.739,0.737,0.707,0.757,0.814,0.738,0.992,0.661,0.901,0.626
353.80263,0.957,0.932,0.929,0.812,0.914,1.0,0.765,0.669,0.585,0.617,0.545,0.531
353.91846,0.675,0.723,0.76,1.0,0.859,0.669,0.576,0.576,0.533,0.571,0.679,0.562
354.36549,0.749,1.0,0.645,0.484,0.596,0.702,0.589,0.621,0.58,0.715,0.595,0.694
354.56317,0.949,0.95,1.0,0.851,0.672,0.773,0.614,0.619,0.702,0.693,0.655,0.647
354.70227,0.851,1.0,0.823,0.753,0.691,0.865,0.953,0.775,0.832,0.781,1.0,0.805
355.00395,0.957,1.0,0.792,0.835,0.912,0.88,0.916,0.807,0.849,0.74,0.947,0.958
355.35814,0.867,0.72,0.63,1.0,0.944,0.71,0.838,0.722,0.771,0.76,0.76,0.792
355.85152,0.817,0.847,0.822,1.0,0.956,0.885,0.828,0.955,0.832,0.79,0.759,0.795
356.32163,0.841,0.793,0.742,1.0,0.819,0.821,0.82,0.806,0.875,0.825,0.796,0.8
357.16336,0.653,0.906,0.748,1.0,0.869,0.645,0.878,0.748,0.7,0.729,0.774,0.713
357.88313,0.628,0.718,0.731,0.734,0.69,0.649,0.791,0.732,0.623,0.613,1.0,0.744
358.34762,0.896,1.0,0.803,0.942,0.694,0.958,0.802,0.751,0.834,0.978,0.816,0.903
358.42317,0.835,0.995,0.832,0.959,1.0,0.79,0.72,0.837,0.826,0.827,0.856,0.81
359.0093,0.943,0.97,0.873,0.957,0.793,0.852,0.869,0.852,0.873,0.909,0.921,1.0
359.6366,0.893,0.991,0.783,0.912,1.0,0.859,0.826,0.654,0.812,0.906,0.935,0.882
360.07206,0.749,0.697,0.787,1.0,0.921,0.771,0.78,0.653,0.704,0.64,0.708,0.714
360.49578,0.867,0.964,0.774,0.718,0.702,0.678,0.653,0.844,0.716,0.801,0.857,1.0
360.85592,0.936,0.987,0.875,0.854,0.869,0.912,0.769,0.811,0.974,1.0,0.948,0.824
361.1922,0.733,0.98,0.825,0.873,0.965,0.687,0.896,0.733,0.763,1.0,0.76,0.673
361.38367,0.933,1.0,0.661,0.711,0.661,0.776,0.691,0.674,0.94,0.771,0.825,0.818
361.61605,0.716,0.745,0.628,1.0,0.802,0.736,0.685,0.663,0.693,0.726,0.769,0.821
362.27782,0.823,1.0,0.726,0.781,0.783,0.77,0.816,0.638,0.77,0.719,0.82,0.95
362.63179,0.983,1.0,0.987,0.908,0.68,0.802,0.814,0.812,0.809,0.83,0.915,0.836
363.06136,0.89,0.927,0.877,0.872,0.793,0.914,0.931,0.91,0.777,0.825,0.907,1.0
363.24127,0.919,1.0,0.671,0.831,0.662,0.776,0.678,0.607,0.883,0.848,0.875,0.963
363.45605,0.787,0.733,0.754,1.0,0.868,0.671,0.765,0.704,0.672,0.638,0.668,0.801
364.2054,1.0,0.919,0.738,0.685,0.779,0.843,0.918,0.783,0.719,0.764,0.863,0.849
364.70998,0.967,0.711,0.701,0.564,0.587,0.663,0.659,0.831,0.957,0.865,1.0,0.813
364.95914,1.0,0.716,0.584,0.661,0.467,0.566,0.486,0.511,0.581,0.585,0.575,0.422
365.08753,0.827,0.877,0.859,0.762,0.777,0.761,0.631,0.674,0.676,0.929,1.0,0.355
365.23823,0.601,0.679,0.794,1.0,0.88,0.715,0.689,0.542,0.486,0.873,0.879,0.612
365.6273,0.806,1.0,0.818,0.855,0.717,0.612,0.574,0.678,0.752,0.825,0.89,0.643
365.96998,1.0,0.815,0.497,0.542,0.399,0.461,0.483,0.416,0.48,0.426,0.552,0.645
366.28295,1.0,0.868,0.746,0.861,0.704,0.991,0.834,0.619,0.677,0.773,0.823,0.965
367.06689,0.782,1.0,0.824,0.717,0.728,0.63,0.506,0.511,0.584,0.609,0.389,0.74
367.22948,0.866,0.758,0.543,0.678,0.656,0.808,0.571,0.614,1.0,0.585,0.557,0.56
367.57751,1.0,0.754,0.49,0.526,0.488,0.772,0.526,0.516,0.808,0.915,0.536,0.436
367.74054,1.0,0.904,0.537,0.547,0.543,0.7,0.994,0.549,0.518,0.604,0.75,0.297
367.90277,0.463,0.41,0.415,0.47,0.647,0.475,0.521,0.386,0.389,1.0,0.544,0.419
368.15837,0.634,0.565,0.512,0.501,0.546,0.514,0.559,0.593,0.66,0.94,1.0,0.66
368.35515,0.488,0.326,0.25,0.338,0.49,0.293,0.506,0.411,0.458,1.0,0.744,0.736
368.57651,0.286,0.238,0.27,0.219,0.518,0.202,0.284,0.263,0.366,0.634,0.581,1.0
368.80231,0.356,0.267,0.26,0.259,0.355,0.361,0.455,0.262,0.248,1.0,0.782,0.423
369.01188,0.435,0.285,0.275,0.277,0.334,0.317,0.376,0.535,0.343,0.766,0.573,1.0
369.19773,1.0,0.45,0.367,0.548,0.507,0.454,0.464,0.591,0.45,0.624,0.821,0.752
369.34839,0.894,0.43,0.374,0.549,0.393,0.453,0.49,1.0,0.371,0.699,0.593,0.802
369.60376,0.543,0.446,0.457,0.713,0.5,0.553,0.616,0.801,0.716,1.0,0.915,0.754
370.01578,0.787,0.584,0.719,0.823,0.736,0.691,0.96,1.0,0.687,0.753,0.725,0.786
370.40499,1.0,0.787,0.488,0.666,0.636,0.592,0.728,0.955,0.482,0.906,0.764,0.73
370.61927,0.837,0.617,0.532,0.624,0.786,0.62,0.848,1.0,0.295,0.597,0.683,0.41
370.78204,0.551,0.488,0.644,0.541,0.619,0.503,1.0,0.626,0.395,0.488,0.694,0.531
371.22322,0.85,0.603,0.322,0.429,0.541,0.533,0.543,0.533,0.864,0.788,1.0,0.595
371.36857,0.511,0.585,0.565,0.681,0.552,0.52,0.557,0.499,0.742,0.826,1.0,0.577
371.63551,0.879,0.795,0.746,0.903,1.0,0.609,0.632,0.617,0.491,0.677,0.798,0.695
371.94299,0.879,0.709,0.87,1.0,0.967,0.874,0.723,0.737,0.784,0.836,0.954,0.697
372.22739,0.91,0.967,1.0,0.93,0.727,0.728,0.722,0.891,0.797,0.791,0.889,0.714
372.59329,0.795,0.907,0.804,0.665,1.0,0.736,0.556,0.728,0.922,0.757,0.541,0.663
373.22585,0.785,0.766,0.788,0.557,1.0,0.755,0.588,0.766,0.889,0.712,0.554,0.552
373.38277,0.782,0.893,0.693,0.776,0.986,0.705,0.775,0.754,0.903,1.0,0.493,0.533
373.522,0.651,0.814,0.587,0.591,0.658,0.62,0.665,0.681,0.687,0.743,1.0,0.7
373.85315,0.942,0.898,0.704,0.641,0.91,0.801,0.819,0.963,0.782,1.0,0.997,0.783
374.13701,0.885,0.875,1.0,0.893,0.907,0.876,0.961,0.948,0.903,0.942,0.779,0.908
374.6078,1.0,0.989,0.684,0.646,0.906,0.903,0.796,0.709,0.732,0.795,0.66,0.847
374.90354,0.531,0.708,0.568,0.48,0.71,1.0,0.709,0.66,0.626,0.495,0.512,0.521
375.06608,0.929,0.928,0.981,0.831,0.891,0.972,1.0,0.963,0.949,0.985,0.906,0.8
375.52467,1.0,0.762,0.53,0.496,0.55,0.565,0.454,0.458,0.384,0.533,0.716,0.496
375.68717,1.0,0.964,0.824,0.799,0.653,0.707,0.624,0.723,0.707,0.663,0.734,0.596
375.8381,0.9,1.0,0.697,0.579,0.593,0.613,0.713,0.616,0.514,0.451,0.572,0.692
376.03546,0.983,0.732,0.8,0.668,0.649,0.729,0.726,0.785,0.925,1.0,0.993,0.791
376.12249,1.0,0.681,0.619,0.592,0.687,0.677,0.769,0.813,0.564,0.672,0.815,0.801
376.3376,0.761,0.948,1.0,0.921,0.709,0.902,0.964,0.753,0.691,0.884,0.716,0.758
376.47669,0.742,1.0,0.705,0.691,0.717,0.716,0.636,0.76,0.708,0.689,0.647,0.615
376.63333,1.0,0.985,0.656,0.591,0.605,0.717,0.822,0.742,0.701,0.592,0.775,0.787
376.82526,1.0,0.78,0.604,0.567,0.588,0.621,0.723,0.629,0.71,0.708,0.676,0.852
377.14431,0.699,1.0,0.44,0.372,0.456,0.473,0.397,0.379,0.385,0.451,0.499,0.393
377.44626,0.802,1.0,0.525,0.726,0.547,0.694,0.611,0.73,0.762,0.706,0.66,0.779
377.80005,0.702,0.841,0.586,0.562,0.548,0.682,0.751,0.619,1.0,0.659,0.674,0.569
377.99175,0.688,1.0,0.759,0.629,0.624,0.705,0.443,0.679,0.606,0.528,0.574,0.755
378.11937,0.968,0.847,0.626,0.676,0.692,0.685,0.807,0.726,0.828,0.869,0.873,1.0
378.41556,0.94,0.777,0.728,0.702,0.539,0.714,0.792,0.759,0.969,1.0,0.754,0.923
378.76971,0.827,0.896,0.671,0.623,0.716,0.94,0.692,0.608,0.847,1.0,0.76,0.792
379.08866,0.677,1.0,0.985,0.802,0.829,0.888,0.737,0.69,0.789,0.796,0.769,0.758
379.43719,0.74,0.706,0.713,0.576,0.624,0.674,0.598,0.683,0.801,0.737,0.757,1.0
379.77955,0.891,1.0,0.76,0.632,0.55,0.652,0.649,0.66,0.717,0.704,0.679,0.724
380.09311,0.783,0.757,0.719,1.0,0.849,0.696,0.691,0.647,0.635,0.68,0.768,0.639
380.85351,0.626,1.0,0.916,0.779,0.647,0.768,0.616,0.6,0.716,0.718,0.696,0.582
381.0341,0.968,1.0,0.797,0.813,0.868,0.846,0.964,0.856,0.663,0.957,0.64,0.944
381.19029,0.772,0.887,0.942,0.708,0.646,0.646,0.597,0.704,0.82,1.0,0.798,0.7
381.53256,0.889,1.0,0.791,0.761,0.682,0.85,0.688,0.825,0.717,0.886,0.864,0.781
381.84621,0.913,0.9,0.899,0.896,0.864,1.0,0.646,0.719,0.614,0.782,0.754,0.702
381.96249,0.744,1.0,0.53,0.569,0.587,0.616,0.577,0.64,0.553,0.647,0.629,0.716
382.18889,0.928,0.91,0.959,0.896,0.881,0.85,0.779,0.934,1.0,0.901,0.991,0.907
382.52512,0.709,0.65,0.683,1.0,0.755,0.664,0.72,0.678,0.645,0.662,0.613,0.688
383.16993,0.841,1.0,0.653,0.588,0.695,0.547,0.816,0.705,0.859,0.745,0.784,0.808
383.36132,0.566,0.812,0.727,1.0,0.764,0.588,0.7,0.715,0.722,0.746,0.741,0.616
383.84907,0.875,1.0,0.664,0.626,0.767,0.603,0.783,0.787,0.74,0.726,0.831,0.781
384.18553,0.799,1.0,0.758,0.69,0.699,0.786,0.858,0.859,0.85,0.836,0.917,0.745
384.47628,0.986,1.0,0.797,0.803,0.822,0.816,0.931,0.951,0.993,0.837,0.914,0.845
384.79519,1.0,0.895,0.771,0.79,0.736,0.648,0.787,0.873,0.818,0.82,0.708,0.701
385.16118,0.938,1.0,0.629,0.781,0.704,0.832,0.811,0.866,0.877,0.75,0.752,0.813
385.42812,1.0,0.775,0.694,0.645,0.796,0.807,0.859,0.865,0.766,0.89,0.832,0.701
385.74744,0.878,0.804,0.858,1.0,0.978,0.876,0.9,0.941,0.805,0.813,0.801,0.96
386.17098,1.0,0.784,0.634,0.643,0.664,0.806,0.905,0.789,0.655,0.711,0.788,0.938
386.44975,0.885,0.834,0.826,1.0,0.892,0.769,0.702,0.593,0.723,0.84,0.813,0.764
386.84463,1.0,0.918,0.809,0.598,0.502,0.535,0.723,0.686,0.652,0.678,0.645,0.921
386.92571,0.938,1.0,0.756,0.732,0.553,0.541,0.584,0.735,0.658,0.739,0.825,0.647
387.10009,1.0,0.923,0.699,0.746,0.692,0.644,0.675,0.74,0.668,0.66,0.714,0.863
387.45379,0.907,0.884,0.636,0.874,0.765,0.774,0.684,0.835,0.895,0.829,0.787,1.0
387.7556,1.0,0.793,0.777,0.786,0.769,0.837,0.747,0.785,0.936,0.918,0.889,0.899
388.08653,0.916,0.874,0.749,1.0,0.869,0.86,0.846,0.851,0.903,0.885,0.924,0.946
