start,0,1,2,3,4,5,6,7,8,9,10,11
0.0,20.058,-95.306,-64.05,-59.236,-0.742,-32.426,-9.729,-4.628,-15.842,5.562,4.076,4.95
0.31229,21.986,-62.334,-68.58,-25.045,-11.433,-45.327,13.69,-3.033,-21.518,-6.234,1.931,-2.325
0.52884,21.536,-77.731,-39.817,-27.299,-0.785,-30.201,7.301,5.559,-12.741,2.757,1.401,1.532
0.98009,20.946,-78.877,-37.977,-27.472,6.168,-53.018,30.841,9.365,-5.183,0.083,0.899,11.339
1.17211,22.77,-82.88,-39.132,-36.818,14.797,-16.3,9.491,3.595,-17.104,-18.352,-4.972,2.397
1.39873,21.996,-85.246,-34.846,-36.37,-0.032,-32.116,6.596,1.572,-15.009,-0.308,-2.929,6.151
1.77655,21.821,-97.209,-42.777,-32.159,19.697,-46.757,10.082,7.75,0.035,0.221,-0.966,4.241
2.06045,23.232,-69.065,-57.45,-30.658,3.042,-50.829,13.529,-3.749,-20.7,9.391,-6.001,7.861
2.27361,22.795,-71.608,-40.248,-34.972,8.58,-37.568,2.608,3.227,-16.979,-3.338,2.493,15.91
2.65986,21.175,-60.653,-44.429,-61.886,0.014,-36.363,0.572,-5.123,-4.925,4.629,-1.851,14.471
2.91438,22.419,-64.582,-43.557,-42.685,6.224,-39.047,-9.795,-12.153,-5.209,-2.25,-3.487,13.989
3.0341,23.121,-60.391,-49.828,-26.823,-6.656,-47.708,-25.222,8.534,-2.267,-8.023,7.188,17.684
3.53669,21.614,-50.598,-54.92,-40.846,8.555,-39.141,-21.707,-3.816,5.73,-9.593,-2.94,10.656
3.68839,20.976,-43.331,-25.916,-45.345,4.993,-41.203,9.516,-3.474,-17.508,-0.011,1.002,19.952
3.79637,25.534,-65.699,-73.322,-20.115,-10.042,-54.238,15.446,-13.186,-21.1,16.32,-4.738,4.533
4.01116,24.044,-70.211,-37.597,-15.217,7.311,-49.457,20.629,-2.292,-14.09,10.289,-1.714,-3.589
4.17506,23.023,-72.217,-20.007,-44.524,14.748,-44.195,29.094,10.745,-6.545,-4.899,-0.483,19.155
4.4473,24.347,-74.092,-44.485,-40.948,6.036,-55.059,23.248,-3.51,4.083,14.969,-0.598,10.471
4.62168,24.747,-59.555,-15.512,-42.454,18.17,-37.146,-2.336,6.739,-6.552,-3.405,-3.104,11.124
4.83778,25.845,-74.403,-8.361,-56.119,36.238,-31.399,-1.529,-11.216,-11.06,-20.003,-4.11,24.489
5.06721,26.847,-90.626,-24.158,-38.194,22.723,-44.166,11.3,13.611,-0.83,1.465,8.137,4.148
5.30939,26.974,-103.729,-33.65,-37.466,18.321,-60.388,17.042,12.02,1.916,-3.243,-0.063,2.856
5.52712,27.164,-75.721,-82.366,-15.06,6.148,-53.855,19.964,-3.715,0.738,6.107,-1.318,7.337
5.73732,25.191,-72.244,-45.805,-49.987,17.278,-32.088,-20.147,-13.544,-0.185,-2.738,-0.323,-3.959
5.9605,26.052,-63.284,-46.989,-50.317,61.064,-39.634,-25.947,-16.092,-19.966,-2.234,5.1,10.534
6.17293,27.878,-67.036,-64.701,-46.976,51.58,-43.981,-1.98,-7.133,-10.611,0.921,2.1,3.725
6.38626,26.698,-63.597,-45.965,-45.255,21.783,-31.519,-23.34,-6.047,-1.68,0.832,1.768,-3.255
6.81456,27.578,-99.659,-63.983,-47.542,10.532,-40.161,0.044,-1.095,-2.907,4.778,10.926,-1.185
7.03184,28.405,-85.384,-53.504,-46.433,25.666,-52.858,-23.291,-9.914,-3.353,0.85,7.836,-3.658
7.25066,29.303,-74.69,-63.749,-37.361,19.052,-23.76,-8.194,11.091,-11.579,-4.865,1.859,-3.474
7.70902,28.064,-69.502,-36.404,-50.639,38.958,-41.736,-8.536,-7.517,6.961,9.401,-9.788,-3.897
7.91247,28.64,-93.245,-45.748,-34.235,19.71,-49.58,12.427,-18.137,0.962,5.972,1.324,4.002
8.02023,29.031,-92.855,-33.704,-39.078,25.186,-45.692,0.844,-1.579,-13.678,-5.229,2.503,22.108
8.12893,29.622,-80.04,-37.364,-38.988,20.933,-32.398,-17.402,5.147,-16.399,-3.199,4.601,15.141
8.35964,30.602,-91.0,-30.95,-33.861,33.561,-39.092,-18.022,6.175,-12.671,4.738,-2.2,11.921
8.85451,30.363,-92.56,-23.482,-29.973,32.536,-46.838,-6.132,26.17,0.562,-8.019,-8.746,-6.131
9.42839,28.103,-70.626,-21.651,-35.038,37.594,-39.279,1.04,-6.987,-4.217,-2.121,-1.001,2.036
10.07188,28.071,-38.702,-15.978,-29.282,50.778,-40.554,-6.176,-0.594,7.175,-8.767,-10.051,-7.55
10.30984,27.958,-65.771,-39.329,-21.314,22.549,-44.837,17.425,6.221,3.825,16.484,-0.755,-3.795
10.64249,27.628,-57.653,-39.076,-48.98,20.094,-47.681,3.478,3.622,0.978,3.04,-0.113,-11.894
10.75633,29.484,-68.678,-63.506,-21.715,-22.515,-53.116,9.846,3.503,-9.045,4.908,-13.616,3.102
10.95329,27.738,-53.454,-32.864,-39.243,-2.276,-34.365,18.216,0.587,-3.353,5.627,-12.722,-0.916
11.60417,28.132,-75.089,-9.87,-32.132,35.47,-28.695,7.414,-12.788,3.061,1.737,2.851,1.76
11.82948,29.787,-66.499,-7.634,-13.177,32.379,-20.518,-20.717,-14.484,-17.238,-6.322,7.135,13.689
12.07964,30.581,-83.492,-15.367,-28.45,16.516,-44.007,10.812,11.196,-19.006,1.188,-3.075,-0.137
12.49492,29.096,-65.82,-39.893,-9.131,13.913,-56.868,11.587,10.263,3.405,14.331,-17.298,-3.44
12.70689,26.773,-73.72,-35.459,-33.208,31.31,-43.705,-37.495,-13.577,-8.696,1.64,3.778,4.252
13.0254,26.886,-88.928,-35.947,-44.672,58.477,-43.002,-55.657,-22.04,-1.845,-7.113,7.461,8.137
13.12535,27.581,-77.467,-38.912,-47.025,41.032,-35.585,-18.477,-0.378,-6.676,8.178,1.641,5.92
13.34073,27.293,-32.936,-36.859,-45.909,18.326,-31.276,-13.682,-3.208,-5.894,5.57,-1.933,-2.225
13.75791,28.047,-72.353,-47.592,-44.146,8.741,-29.963,8.956,-4.785,1.887,7.361,-14.514,3.344
13.91537,28.006,-73.746,-56.564,-47.955,27.468,-43.54,-12.118,-2.8,-2.524,2.761,-2.835,-6.285
14.11864,27.632,-56.365,-16.268,-46.743,41.436,-32.271,-31.063,-12.006,-2.541,-17.2,6.089,3.377
14.2161,30.055,-60.019,-64.911,-19.309,7.284,-30.912,-7.206,0.341,-9.725,5.021,10.906,-3.305
14.64549,28.917,-52.126,-12.653,-53.811,13.765,-27.234,1.07,-22.734,-15.095,13.385,-4.826,2.027
14.87029,30.903,-74.486,-35.097,-33.582,4.21,-35.314,-2.102,-8.823,-9.193,-7.768,3.013,4.486
15.2766,30.864,-66.832,-9.193,-55.871,13.872,-31.236,-0.502,-1.089,-0.431,-0.333,-1.936,1.097
16.26376,29.783,-33.66,-39.894,-39.331,-8.741,-30.473,11.074,-10.21,0.281,2.238,-12.349,-8.076
16.70222,28.729,-65.351,-54.254,-67.229,-27.247,-34.226,-12.219,-6.147,3.269,1.23,-3.452,1.452
16.81714,29.616,-43.584,-52.752,-35.282,-15.135,-39.466,-7.374,11.491,0.073,-6.378,5.221,-3.195
17.02059,28.531,-46.933,-45.397,-34.46,-18.129,-24.757,-6.7,6.221,-5.48,10.304,-18.522,-1.651
17.71374,28.979,-31.079,-51.877,-14.911,-18.998,-36.461,13.421,-3.416,4.872,23.988,-17.885,-0.157
17.92685,28.25,-34.265,-36.051,-24.247,1.403,-48.818,26.032,-0.674,-23.221,-0.732,-10.769,-0.196
18.13188,28.032,-57.103,-28.445,-35.234,22.378,-25.586,2.777,-3.394,-18.511,13.615,-7.511,9.859
18.34639,27.697,-42.099,-52.085,-37.867,12.098,-40.003,25.645,-8.817,-7.32,12.357,-2.103,1.916
18.52934,27.952,-37.542,-15.252,-42.593,5.66,-28.732,13.554,-3.855,-11.124,-3.852,-3.975,4.387
18.77982,29.71,-52.639,-9.299,-38.504,20.524,-45.472,12.481,-6.616,-11.405,9.269,-5.117,-3.819
19.23737,31.977,-85.05,-14.739,-45.649,5.011,-42.299,1.46,-13.727,1.147,11.746,-5.052,2.5
19.42748,31.756,-75.376,-38.966,-14.56,15.714,-43.105,-8.596,17.287,-2.255,-8.328,1.627,-9.594
19.76485,29.231,-42.242,-51.293,-35.049,-14.079,-41.525,8.177,-2.372,-3.966,-0.347,-3.752,-2.238
19.87093,29.666,-44.963,-45.83,-55.371,-23.245,-33.62,6.676,-5.959,-7.449,-0.507,-0.265,0.652
20.29488,31.231,-72.371,-45.364,-46.594,-9.785,-36.892,-15.14,-3.748,-0.085,1.059,-0.508,-4.129
20.51478,31.412,-61.308,-39.042,-46.2,-3.017,-44.288,-13.292,-0.695,4.636,-4.509,0.118,-3.13
20.75093,31.769,-45.787,-41.034,-46.557,-2.736,-50.837,-12.968,1.966,0.322,7.145,-1.627,1.702
21.18748,31.335,-32.01,-36.619,-46.792,-7.173,-44.691,0.68,-1.239,-3.491,7.481,-4.07,6.814
21.65764,32.366,-26.818,-11.402,-41.457,10.903,-33.7,-11.683,-11.562,9.06,7.699,11.45,3.185
22.73342,34.09,-81.056,-3.872,-45.807,19.915,-31.436,-20.707,-6.128,-1.18,-2.313,2.167,6.115
22.93655,34.07,-56.086,-8.057,-17.533,12.814,-43.358,-13.808,14.732,14.849,-7.463,1.992,-4.209
23.34104,31.399,-28.033,19.471,-14.998,13.101,-29.249,-10.505,-6.184,9.86,-1.933,0.529,-6.05
23.57501,31.631,-18.432,10.177,-15.069,10.573,-38.306,9.983,4.905,0.544,-6.5,-3.367,-10.181
23.7766,31.117,-19.091,1.852,-11.961,26.789,-29.247,-38.883,-8.119,-15.118,2.56,1.477,-1.896
24.23546,29.787,-61.724,-21.807,-27.326,-10.516,-54.821,-0.189,18.321,11.3,-3.041,-6.308,-5.904
24.51433,29.398,-25.49,13.868,-33.406,10.5,-32.214,-16.888,6.825,4.017,0.875,-6.701,-9.758
24.6712,30.553,-30.98,-43.72,-50.475,-19.186,-51.758,-1.605,6.999,-6.645,4.714,-7.656,-11.525
25.11234,29.464,-17.961,2.723,-11.115,-9.644,-50.95,-7.664,30.707,4.523,6.657,-7.343,-19.48
25.28245,28.588,-25.755,-5.194,-37.18,-3.975,-28.45,17.737,-2.556,2.948,6.323,-12.508,-3.335
25.50762,28.897,-18.446,-7.053,-14.871,27.46,-34.624,1.586,-26.022,5.706,2.779,2.881,-9.097
25.68068,29.134,-36.203,23.874,-14.224,33.586,-41.62,5.117,22.34,10.495,5.559,-7.67,1.332
25.95959,29.461,-59.0,-25.129,-23.07,18.372,-44.328,27.701,-3.209,-9.272,9.078,5.37,12.681
26.17442,29.217,-45.148,-17.792,-19.817,4.799,-54.821,30.622,19.902,5.322,6.376,-4.025,11.973
26.6112,27.669,-11.494,24.539,-1.134,31.279,-53.536,24.053,-13.53,6.808,-4.019,0.383,-0.642
26.83029,27.102,-15.759,20.962,-6.326,41.552,-34.517,22.128,2.466,-6.303,8.352,-9.719,26.804
27.03973,27.772,-29.786,-16.998,-17.358,3.16,-33.243,17.941,4.138,-8.048,7.214,4.236,16.461
27.22535,27.429,-24.52,21.063,-7.162,36.56,-40.191,17.238,19.37,-7.639,-0.833,1.787,15.556
27.65537,28.033,-44.62,19.883,-35.824,37.786,-34.891,35.957,17.903,-9.607,9.323,-7.935,18.638
27.92939,28.393,-47.447,-6.679,-1.963,32.625,-45.895,44.815,10.742,-3.474,4.849,-9.287,14.504
28.11256,28.576,-51.633,2.877,-28.451,15.541,-16.616,50.094,12.58,6.263,6.701,-16.096,18.279
28.57247,28.561,-31.267,-22.813,-19.158,36.775,-44.814,24.774,9.517,-2.741,9.208,-0.956,0.392
28.74204,27.746,-61.54,4.652,-18.418,32.634,-34.151,53.356,32.059,0.443,-4.176,-16.459,3.186
28.89138,28.37,-32.254,11.509,-36.973,35.179,-33.698,50.031,-1.651,-8.095,17.431,-2.489,19.2
29.41596,29.476,-53.268,34.425,-24.905,45.336,-25.701,37.281,-7.816,-10.013,2.342,-1.65,15.169
29.55324,33.164,-41.829,17.438,-27.306,26.585,-26.055,35.01,30.794,0.552,5.757,-0.381,21.584
30.10676,33.808,-22.451,-28.352,-56.606,-2.023,-40.233,17.574,11.011,5.879,13.497,-3.908,15.062
30.30957,35.044,-24.292,-30.854,-45.431,42.29,-51.385,34.679,-6.838,-1.855,8.379,-4.759,8.824
30.85633,36.021,82.602,-61.605,-55.37,21.752,-24.932,-5.99,-1.365,24.986,-15.537,4.608,11.026
31.13719,34.793,-16.137,-21.287,-42.89,5.167,-31.373,17.958,-8.64,-6.031,16.963,-4.981,-14.79
31.23252,35.918,-23.236,-22.189,-25.805,13.227,-36.822,15.626,6.375,4.65,1.744,-20.74,-5.104
31.40068,32.716,-36.239,-68.224,-43.156,16.226,-34.881,1.729,-13.823,-7.098,4.132,-26.656,-2.378
32.4771,29.94,-71.794,-71.206,-33.752,2.392,-41.87,-15.826,0.873,-9.119,7.277,-0.835,1.324
32.68961,29.095,-36.832,-69.69,-45.848,10.388,-34.378,0.594,4.712,6.589,-13.02,3.221,-9.237
32.93179,28.121,-67.373,-60.348,-28.79,-9.54,-44.795,-7.669,-13.972,2.823,8.998,-11.548,11.317
33.13057,26.991,-42.263,-74.449,-56.411,-3.231,-39.429,-8.448,-0.813,-11.232,1.909,-1.643,3.904
33.34703,28.354,-32.419,-83.474,-35.699,-17.196,-30.068,0.468,9.442,-22.438,7.947,6.52,-1.849
33.5829,28.1,-10.956,-37.063,-34.188,-35.39,-45.45,28.005,17.624,-33.507,-6.919,2.498,4.851
33.67247,30.587,-13.509,-52.558,-40.802,12.177,-23.516,10.72,-2.749,-16.587,-0.64,-26.59,4.866
33.99601,30.751,-35.192,-58.312,-77.777,18.348,-28.84,-14.94,7.216,12.347,3.826,3.743,17.907
34.23438,33.46,-2.892,-48.301,-39.349,17.224,-44.95,-26.757,-5.313,-5.407,-5.337,5.953,19.059
34.33628,35.812,-3.871,-8.013,-72.814,32.094,-18.948,12.62,-23.211,-3.223,-5.34,2.436,18.928
34.83451,38.184,4.351,5.53,17.009,28.36,-36.79,-0.614,18.803,-10.456,-14.784,-8.69,-9.308
34.97546,35.872,59.803,-42.591,-29.445,39.393,-22.252,-5.941,-36.558,12.52,-6.072,-15.198,9.591
35.37687,36.416,-0.358,8.25,-39.633,13.886,-29.866,-34.925,1.841,8.066,3.111,0.115,-15.61
35.60177,37.341,1.25,44.157,-9.8,21.659,-23.335,-40.303,-20.92,6.671,-3.301,-0.381,-31.775
35.71896,37.995,-7.807,52.285,-24.014,4.756,-28.485,-29.923,-6.57,5.996,6.874,-0.091,-43.409
36.04948,38.307,10.55,57.956,-19.925,4.512,-18.853,-40.319,-4.433,1.063,-2.587,-6.445,-38.546
36.41424,38.634,-31.719,21.876,3.461,0.885,-32.334,-27.117,-0.982,11.0,7.052,-33.223,-44.015
36.71002,34.04,-31.653,21.396,-27.639,13.058,-38.163,-42.017,-7.884,8.488,2.728,1.408,-31.005
36.78571,34.611,-57.279,-13.312,-23.787,-9.18,-34.785,-18.871,-8.121,-16.403,-5.579,-10.698,-9.265
36.96127,35.097,-85.172,-12.202,-24.357,14.638,-40.333,13.303,-7.826,11.689,18.395,-4.895,5.115
37.06485,36.167,-83.783,6.54,-34.287,34.657,-44.383,9.542,-8.791,19.974,5.735,-2.68,-10.746
37.12948,38.173,-44.755,31.331,-46.007,27.991,-44.42,12.979,12.244,32.81,-3.271,-2.487,-3.72
37.2966,39.919,-20.421,37.388,-9.35,50.321,-44.486,4.923,-4.011,28.444,5.592,-0.544,-2.822
37.49465,40.363,-30.575,23.892,-10.712,35.63,-35.008,-7.617,1.313,12.373,5.612,-15.621,3.849
37.91719,35.116,-60.882,2.609,-11.183,18.377,-19.498,-2.8,7.774,-12.868,-3.447,-12.098,-3.177
38.24308,33.891,-44.118,-17.111,-28.805,20.23,-44.007,-9.9,23.143,-20.647,-3.765,-13.783,-11.51
38.5883,34.02,-0.188,-43.188,-66.028,-24.729,-48.089,-22.537,1.798,5.612,3.801,-8.195,-14.556
38.81302,35.68,8.742,-24.705,-61.119,-19.899,-35.152,-33.794,-17.325,12.734,3.261,-1.741,-6.525
39.44508,36.456,-32.212,-31.216,-5.931,3.543,-38.96,-10.245,-1.006,-17.778,4.08,-25.54,-2.448
40.33061,31.406,-45.373,-55.069,-25.257,-23.91,-64.463,12.742,-2.668,-15.795,6.916,-18.012,10.508
40.50571,30.296,-39.872,-48.368,-23.834,-14.486,-24.819,14.767,11.772,-15.056,-13.73,-8.427,-3.02
40.74404,29.867,-17.364,-25.271,-16.666,6.122,-44.572,23.49,-15.437,-6.659,24.271,7.316,3.677
40.94726,30.654,-18.085,-31.777,-34.173,9.377,-38.746,24.801,-1.8,-13.276,11.066,-9.358,-3.8
41.15751,31.689,-47.638,-39.88,-19.073,12.716,-10.852,-3.237,-22.563,-14.986,-3.364,-2.016,-1.95
41.39615,32.163,-51.952,-25.3,-14.559,21.319,-29.657,-13.842,1.073,-23.104,-0.776,-0.614,5.35
41.61442,32.482,-56.334,-37.405,-26.342,25.687,-44.777,-0.361,5.689,-5.312,9.112,9.229,2.208
42.0561,31.424,-26.518,-50.428,-11.557,-12.072,-71.54,-7.841,3.675,-7.328,6.998,-0.828,2.037
42.2663,31.753,-53.064,-56.647,-39.808,-1.593,-45.216,3.36,4.239,9.554,18.08,3.378,-19.936
42.4985,31.799,-48.62,-31.986,-18.221,-3.598,-67.504,0.445,3.258,1.129,25.299,-9.954,-12.973
42.70626,31.546,-39.812,-33.939,-26.585,20.308,-48.718,24.552,5.405,-7.134,14.148,-4.221,0.19
42.92762,32.718,-32.688,-52.55,-32.206,-13.58,-58.674,-11.492,-13.771,-13.909,15.865,-2.631,-6.419
43.01805,33.464,-14.967,-52.535,-59.216,-3.53,-41.515,-5.171,-3.938,-18.227,-4.819,4.934,-9.488
43.14381,34.653,-58.118,-35.428,-48.616,10.645,-36.788,-27.633,-11.768,3.34,11.886,-4.157,-10.594
43.26422,37.675,-26.423,1.417,-48.016,5.852,4.035,-31.27,15.377,-12.147,-13.01,-7.453,-30.673
43.80413,35.024,-25.129,-38.62,-9.674,-0.58,-54.661,4.646,-1.042,-16.255,18.145,-23.624,-4.169
44.24154,32.023,-8.899,-41.531,-19.759,8.05,-71.743,-5.207,-9.264,-27.544,12.804,-10.791,-1.993
44.44218,32.381,-51.229,-44.45,-34.265,6.291,-43.476,8.894,8.128,-10.95,0.132,7.292,-5.852
44.6624,33.39,-45.051,-55.821,-6.408,-2.76,-57.432,-17.665,-2.687,-19.467,9.792,10.633,4.108
44.86222,31.387,-31.632,-28.863,-26.686,11.75,-37.705,-1.703,-10.881,-15.874,-7.126,-6.043,-2.338
45.10794,33.054,-38.809,-30.295,-24.696,-4.139,-63.429,2.58,-11.338,-19.013,19.044,-14.122,8.756
45.19778,33.496,-69.848,-40.608,-31.617,6.648,-39.653,-10.343,-10.088,-10.043,-0.238,3.34,1.146
45.34726,33.299,-53.316,-30.694,-24.149,-11.406,-47.627,-10.911,-0.065,-12.488,-8.333,0.037,-2.92
45.43542,37.09,-10.912,4.887,-55.462,30.581,-1.163,21.5,6.271,21.653,-0.926,-5.101,22.171
45.76517,38.161,-30.446,-25.339,-16.462,60.455,-43.522,8.149,-15.212,13.541,-9.67,-2.275,35.713
45.94104,37.664,-30.233,-40.939,-39.397,45.298,-41.158,-9.771,2.166,23.283,1.908,2.364,24.937
46.03247,39.115,-16.03,-29.314,-48.561,47.518,-47.836,-6.914,-11.559,39.794,13.819,-5.009,40.768
46.1624,40.854,-24.517,-21.59,-52.204,44.287,-43.508,-4.674,-5.821,34.406,12.076,-2.914,37.134
46.31941,42.028,-20.354,1.008,-29.685,32.46,-36.561,16.969,-0.406,22.065,2.48,2.769,31.061
46.40141,41.672,-8.522,-35.805,7.297,29.47,-33.03,-9.037,5.68,20.467,-2.799,-15.891,35.035
47.02485,39.106,-1.356,-4.23,-40.257,-4.983,4.557,-23.425,-0.978,-2.264,0.915,-2.039,1.66
47.23465,41.096,47.926,-14.174,-40.107,-30.956,-18.407,-45.121,-1.277,6.629,1.373,12.814,-3.624
47.49202,41.321,51.693,-5.718,-18.449,-31.55,-28.532,-49.86,-9.066,-1.268,7.523,-4.378,1.637
47.65946,40.284,70.986,2.821,-34.868,-23.068,-15.295,-61.913,0.714,4.029,10.167,-3.986,-0.95
47.89719,39.538,50.672,-12.501,-23.47,-23.148,-10.975,-61.386,-16.96,8.2,-3.555,-13.426,-3.933
49.23365,34.972,3.557,-11.811,-32.279,-24.566,-28.508,-32.267,-10.846,-4.219,3.741,6.597,7.163
49.32417,37.404,13.268,31.928,-46.094,11.328,-9.63,-6.657,5.359,-6.452,10.871,-24.386,8.545
49.57986,37.114,43.778,0.043,-49.594,2.355,-11.428,-50.342,-10.886,8.785,-1.227,-3.103,-1.733
49.85891,36.834,16.579,6.538,-24.151,-11.686,-40.342,-38.98,-12.721,-7.322,-2.581,2.888,-4.949
49.92857,40.108,39.582,21.807,-38.96,31.26,-17.775,-0.85,-13.512,6.452,5.633,7.925,22.274
50.09161,40.548,14.303,14.536,25.228,29.819,-24.867,-12.345,-12.531,10.8,-0.525,-22.145,28.014
50.70599,36.704,-56.504,-20.305,-41.537,19.977,-26.384,-44.133,-10.894,1.723,2.125,1.814,12.706
51.06576,36.529,-28.633,-17.604,-44.592,16.675,-33.49,-38.742,-10.539,7.081,-1.984,7.637,11.462
51.33955,37.018,-45.716,-16.088,-37.917,28.604,-18.107,-42.399,-10.393,6.603,-7.057,-1.755,20.932
51.58177,36.612,-44.627,-2.798,-50.804,14.934,-31.544,-25.402,5.112,-1.051,-5.3,4.919,22.09
51.66757,39.591,-60.264,42.479,-55.448,42.306,-37.611,-8.284,10.411,14.881,16.957,7.21,4.973
51.96644,42.202,-40.36,56.688,-14.628,32.282,-41.881,25.697,13.2,3.788,5.815,-4.689,9.337
52.30898,42.461,-29.732,61.126,-8.207,42.859,-43.302,17.599,5.312,3.94,4.997,-8.303,12.973
52.49488,43.899,-19.38,45.557,-15.143,41.917,-32.536,38.66,10.936,12.889,-6.975,1.579,5.175
53.31828,42.751,-35.822,48.094,25.547,52.359,-42.184,16.667,-7.147,1.188,-2.795,-6.113,9.87
53.78263,40.21,-47.225,21.391,8.329,30.557,-47.711,22.404,27.257,3.59,4.893,11.661,6.983
53.95764,39.89,-18.123,23.022,-17.056,39.517,-50.467,42.106,8.787,20.799,15.041,-10.726,21.298
54.07578,40.253,-32.52,18.4,-7.361,42.423,-44.18,13.967,9.584,0.431,4.924,2.567,18.255
54.23506,39.734,-53.199,13.996,-14.557,27.133,-45.277,26.881,3.154,17.774,15.565,-11.876,6.36
54.41537,41.516,-61.284,26.956,-0.305,40.363,-42.873,5.517,3.257,6.379,8.397,-0.432,-24.156
54.71841,40.209,-63.37,29.252,4.485,64.104,-40.164,22.173,10.555,16.918,-4.139,-18.731,3.296
55.24145,38.347,-58.852,12.85,-24.538,41.65,-31.372,37.413,4.005,6.749,4.421,-1.551,16.281
55.37909,39.75,-45.059,30.163,-4.051,55.283,-54.148,39.193,4.61,2.191,7.897,-6.72,20.345
55.59995,38.877,-58.153,5.357,-24.541,51.287,-32.067,31.533,0.898,-2.647,7.072,-5.412,23.564
55.8395,38.293,-73.055,7.273,-31.15,42.034,-28.056,12.947,8.91,13.721,0.684,-9.573,37.757
55.95492,38.928,-76.138,-16.092,-5.8,26.095,-38.694,39.052,8.602,-6.098,5.08,0.318,16.816
56.15152,37.321,-80.105,-10.641,-5.757,22.313,-52.894,46.808,20.924,-4.909,-5.429,-0.304,22.631
56.36014,36.656,-60.384,10.121,-9.357,26.533,-35.723,46.644,29.329,14.833,-9.742,-13.041,19.796
56.54662,36.925,-52.468,-8.146,-41.247,28.346,-56.31,23.461,17.021,-9.351,3.502,7.893,18.576
56.69175,37.72,-53.124,-24.373,-49.853,31.865,-41.413,2.263,14.431,-16.818,5.87,-9.832,12.943
56.83705,37.94,-50.53,-14.854,-10.478,28.14,-50.889,-0.408,5.637,-8.489,4.934,-0.554,7.952
57.04195,36.256,-43.482,-0.2,-24.33,24.125,-32.227,9.54,-2.632,-11.952,-2.988,0.664,3.959
57.20934,36.762,-75.441,15.892,-30.573,30.517,-40.544,9.773,9.732,0.386,6.086,-4.374,17.657
57.55751,36.73,-34.365,-4.744,-30.844,16.909,-33.746,7.353,14.127,9.556,7.48,-8.047,8.6
57.68358,36.64,-47.348,-28.807,9.898,21.404,-40.7,41.024,9.339,4.494,-3.079,-7.772,12.56
57.92839,32.883,-32.247,-22.087,-23.669,9.519,-57.497,15.697,10.954,8.147,3.903,-1.37,-5.254
58.02218,33.704,-62.978,11.767,-8.723,40.003,-49.159,48.268,11.821,0.007,12.553,-9.663,9.236
58.13737,34.573,-44.443,-2.028,13.228,28.622,-47.412,27.629,-21.271,1.711,15.839,-3.174,9.547
58.27002,34.062,-73.112,32.548,-18.665,45.353,-37.967,27.187,2.1,7.707,0.119,8.539,20.447
58.36304,36.496,-23.238,-2.091,-5.844,49.232,-54.151,32.713,5.791,0.441,8.586,-2.562,17.363
58.56195,36.744,-33.027,-4.518,-17.898,22.451,-32.168,10.906,-6.026,-9.662,-0.936,5.331,2.959
58.71002,39.355,-14.215,31.041,-17.584,52.574,-41.874,16.089,-3.451,-3.855,1.79,-8.98,-18.416
59.01882,39.848,-50.98,-5.42,0.501,39.137,-54.484,16.451,9.526,0.208,2.892,-19.846,-5.088
59.43188,36.051,-40.808,-45.786,-8.721,26.715,-24.844,16.859,-8.104,-0.207,8.42,-7.672,-19.856
59.6351,34.75,-43.561,-37.256,-35.705,14.568,-22.621,28.213,8.454,-6.9,-6.068,-8.655,-2.116
59.88948,34.836,-27.075,-30.357,-21.873,18.999,-74.34,2.557,-7.56,-2.035,8.674,-9.844,-1.052
60.09905,35.636,-42.951,-36.739,-26.867,19.6,-53.893,6.95,-3.016,-5.099,4.376,0.356,-8.374
60.30281,36.969,-26.332,-16.823,23.123,-2.459,-10.559,10.571,-10.464,0.376,-2.795,13.72,4.919
60.52753,35.589,-36.536,-10.995,-21.534,2.088,-38.483,-3.41,-19.002,-20.721,2.567,2.486,5.138
60.75429,36.407,-44.282,-12.508,-2.731,2.775,-47.847,-8.469,-11.144,-10.062,14.278,-4.228,0.493
60.97732,35.378,-40.775,-30.137,-9.864,-15.449,-65.869,-2.794,-19.543,-3.127,9.676,-10.706,-10.44
61.19066,40.043,-21.205,-14.295,-13.33,-10.388,-41.951,-1.964,-20.475,-14.444,18.127,4.174,12.404
61.39288,40.243,-57.725,-16.316,-43.53,11.697,-32.67,-34.593,13.802,-7.689,-6.885,2.325,10.393
61.83959,41.478,2.326,-16.222,-25.644,35.637,-24.708,-2.385,-33.548,-13.327,-4.394,3.121,2.386
62.00281,41.553,-44.821,6.405,-41.008,40.704,-30.15,-45.853,1.489,-27.79,-5.04,-0.953,10.886
62.18304,43.613,-24.072,37.443,-34.818,15.533,-20.153,-44.849,22.487,-27.136,-5.52,12.917,-9.168
62.45673,44.361,0.856,7.236,-16.076,12.971,-25.852,-64.249,-8.073,-6.28,-5.631,-5.039,-20.825
62.93129,42.461,-34.09,-18.042,-13.058,-1.33,-55.999,-4.436,4.521,-20.548,25.987,-2.37,5.854
63.30331,42.721,-8.825,-8.167,-58.298,-1.733,-30.129,-23.26,-10.163,-12.922,0.759,-5.085,-6.38
63.41429,45.192,15.539,-10.394,-57.412,6.998,-21.263,-38.274,2.439,-7.827,-2.456,1.595,1.906
63.53601,46.007,30.058,-13.951,-20.093,12.034,-29.054,-46.507,-14.594,-5.684,-5.618,-3.14,-13.426
63.9537,44.115,30.482,21.817,-27.399,15.689,-26.04,-45.254,-11.198,-10.551,0.307,-12.427,-29.434
64.11075,44.379,38.572,10.319,-39.83,6.621,-23.78,-39.549,-13.698,-9.338,2.612,-8.466,-23.516
64.30771,44.205,10.77,-0.194,-31.775,18.597,-17.513,-42.869,-0.288,-4.12,1.29,-10.307,-19.888
64.52875,42.743,-6.37,3.076,-21.629,17.968,-29.083,-46.0,6.002,-1.876,-2.226,-3.317,-26.539
64.67311,41.174,-24.537,-14.062,2.19,7.625,-39.82,-23.867,-2.622,-1.597,0.559,-16.218,-16.468
65.10698,37.816,-48.16,-3.579,-8.49,20.454,-57.872,-24.622,-0.205,-10.631,13.097,-11.496,-10.092
65.31129,39.647,5.946,-27.325,-27.591,17.832,-22.593,-4.27,-17.948,5.591,-22.022,4.585,7.477
65.72853,38.539,0.461,2.515,-17.236,-10.887,-40.482,6.675,-1.854,-26.034,-7.519,3.63,12.771
65.7985,40.013,-35.278,7.994,-32.722,7.476,-33.753,12.272,10.176,-22.132,5.687,-0.083,5.547
65.90961,41.358,-26.455,11.211,-44.58,16.844,-34.862,-0.557,9.094,-26.62,-9.373,-6.792,4.963
66.13746,42.555,-47.832,-18.158,-30.481,9.814,-29.973,-17.028,-3.612,-16.401,1.085,-11.989,-5.797
66.41034,40.37,-44.643,-30.587,-16.383,-0.882,-52.344,2.691,12.219,-4.279,6.696,-0.111,2.268
67.04834,38.533,-47.563,-42.443,-37.523,0.072,-34.366,-6.555,-12.321,-11.372,0.365,-4.143,-4.473
67.27302,37.957,-45.756,-44.125,-25.01,-12.603,-51.618,-30.336,-12.897,-3.024,12.473,0.072,2.554
67.48336,36.407,-68.386,-35.294,-16.649,-0.111,-42.001,-28.441,-6.295,-4.621,7.178,1.794,-13.718
67.7073,37.921,-37.996,-14.897,11.852,-12.122,-69.163,6.645,-8.108,-6.161,10.419,2.214,-1.194
68.05923,35.561,-37.786,-10.385,-61.079,-6.535,-24.205,6.103,8.832,-20.638,-0.429,-12.172,4.905
68.35787,37.933,-21.573,-13.049,-62.25,0.703,-24.687,-19.578,8.631,-5.329,3.287,12.562,6.801
68.47569,40.929,60.79,5.741,-50.084,5.723,-34.668,-18.149,8.308,24.152,7.858,5.827,15.598
68.58599,41.638,59.124,-32.433,-6.26,-1.729,-26.995,-37.544,-34.821,8.847,-1.056,-37.183,18.899
69.0156,38.41,-10.563,-21.627,-31.805,-26.235,-50.766,-30.724,-13.311,-2.797,12.416,-1.411,9.983
69.0981,40.464,40.894,-6.533,-86.119,-20.803,-28.064,-46.992,19.119,3.019,-3.249,12.552,-2.408
69.30481,42.802,83.594,-21.407,-19.637,-3.504,-8.013,-39.288,-51.945,1.098,7.142,-33.143,18.018
69.61283,40.587,-6.163,-26.731,-27.198,14.807,-40.5,-31.292,8.203,-11.937,10.425,-6.739,16.459
69.89329,39.278,-31.748,-40.581,-8.253,-8.551,-51.119,12.998,-3.146,4.536,-3.156,-12.319,11.096
70.31574,38.506,-52.316,-18.912,-30.084,34.867,-55.348,-2.457,3.21,-4.897,5.804,-5.585,-0.497
70.41574,40.256,-61.909,-4.879,-63.694,38.801,-43.825,0.868,10.789,-2.136,-3.189,7.964,0.614
70.65075,41.873,-23.005,-11.988,-32.75,29.805,-60.692,-11.639,7.04,2.231,4.896,-2.468,0.936
70.7976,42.546,-28.692,2.534,-37.084,43.916,-52.937,4.187,5.803,-0.626,1.037,-0.332,25.17
71.15619,42.652,-34.127,-10.544,-22.619,48.658,-20.471,-0.96,4.867,-8.06,-2.396,-7.868,13.842
71.3551,40.814,-49.174,-21.739,-10.006,20.531,-43.675,-1.529,2.986,-8.674,-9.106,-5.432,18.894
72.05846,38.487,-15.728,-14.031,-29.947,0.942,-57.832,-23.096,-12.115,5.978,7.926,-0.238,6.665
72.27977,39.901,-48.336,-31.723,-48.848,0.152,-45.064,-31.381,4.563,-1.953,-2.073,-13.301,3.787
72.46531,39.834,-29.797,-7.412,-14.341,16.418,-27.685,-12.525,6.302,10.754,-6.496,-8.223,5.487
72.70177,41.077,-20.454,25.781,-37.878,13.475,-26.693,1.136,9.644,-0.085,1.537,8.823,19.115
72.80649,43.511,0.585,15.788,-32.541,24.422,-23.785,-8.285,1.907,-3.864,6.867,-17.983,13.036
73.30621,39.35,-33.38,-16.895,-18.579,3.71,-36.272,-2.261,-7.121,-12.187,0.94,-13.109,0.383
73.75791,39.381,-28.776,-21.779,-33.239,1.835,-31.65,-5.63,11.386,-8.495,-15.353,-2.635,4.512
73.94317,39.212,-37.552,-18.67,-36.829,20.779,-36.847,-16.212,0.542,-12.796,4.359,-8.945,-4.467
74.67302,37.939,-50.743,-25.731,-10.853,-8.256,-67.64,-18.015,2.572,-0.738,10.856,-17.391,-16.256
74.85995,36.221,-43.419,-29.751,-22.922,-14.431,-30.198,-12.78,-10.27,-0.369,-3.074,0.59,-8.179
75.09261,38.752,-24.863,-11.999,-28.019,5.634,-39.214,24.172,-1.679,3.625,9.333,16.853,4.036
75.22168,39.737,-6.235,-2.161,-37.341,39.243,-40.209,-1.554,-0.394,30.543,8.818,-8.132,8.661
75.32975,41.404,12.897,-29.451,-36.913,45.947,-28.718,-13.9,-7.486,24.054,-9.465,-7.006,16.3
75.76054,41.058,-41.787,15.226,-34.88,19.821,-45.594,29.717,-31.042,-27.599,21.009,3.795,18.482
75.9756,41.973,-70.846,67.159,5.013,20.113,-57.864,46.594,5.788,-15.048,0.11,1.098,32.343
76.06771,43.854,-47.938,84.947,-25.506,21.16,-33.976,44.351,25.921,-2.559,-3.058,9.191,29.889
76.26621,44.699,-37.908,48.175,17.065,28.981,-37.592,8.807,13.251,3.145,-3.53,-9.961,25.34
76.54499,42.427,-18.596,41.253,21.346,17.575,-24.521,25.618,-2.799,-1.368,-18.498,-17.516,8.016
76.84068,41.271,-35.929,-13.469,2.7,-9.748,-55.439,28.84,4.694,-6.195,3.462,-10.872,9.214
77.0229,39.656,-57.251,-1.334,-34.757,-4.036,-37.872,10.986,12.286,-12.115,-4.358,4.536,-3.194
77.19383,42.148,-40.163,20.879,-54.974,-1.525,-29.328,-5.912,9.913,-30.799,-2.39,6.263,-31.529
77.37397,45.397,0.956,31.622,-38.243,-5.574,-29.437,-16.856,0.847,-18.453,-2.214,-5.793,-27.527
77.80422,46.72,7.002,33.607,-18.957,-2.915,-29.26,-30.712,2.302,-16.0,-3.027,-5.001,-34.204
78.08426,45.622,13.387,45.895,-20.017,0.432,-17.372,-7.398,-7.213,-8.602,-0.678,-13.649,-26.605
78.29234,45.649,-5.569,12.753,1.459,-2.293,-40.708,-19.988,-8.607,-10.506,-6.62,-5.813,-16.908
78.45986,43.42,-29.751,13.844,12.176,4.074,-31.129,-20.66,-3.237,-15.83,5.308,-11.744,-26.306
78.97728,39.843,-21.262,-7.852,-40.215,-6.524,-27.57,-18.279,15.87,-2.153,-28.329,-9.272,-8.937
79.11007,40.163,-74.074,16.518,-19.576,6.952,-32.131,-4.889,17.04,-2.769,2.879,-2.626,-11.781
79.45329,39.56,-46.353,10.803,-3.319,5.136,-63.248,14.626,7.524,-5.347,3.682,7.169,7.894
79.66354,40.379,-7.809,8.634,-50.469,21.845,-45.684,-2.479,-0.212,15.116,13.333,10.333,13.445
79.86181,44.295,2.997,15.622,-26.265,11.905,-30.072,-9.724,16.895,-5.073,-3.233,10.447,2.973
80.00571,44.249,-0.546,31.715,16.14,34.584,-30.394,-1.612,-14.971,-22.253,-10.655,-16.19,-0.874
80.30766,42.347,-67.37,-19.965,-5.677,7.892,-44.339,17.954,9.554,-4.607,1.097,6.048,7.44
80.44023,41.149,-63.537,0.549,-43.168,5.499,-33.559,-9.716,15.528,-12.575,-0.199,5.738,-1.753
80.63723,42.341,-25.294,4.473,-37.713,-3.802,-26.019,-23.071,18.504,-4.956,9.967,4.36,-16.029
80.9556,41.832,-24.721,-25.658,-3.419,6.168,-24.476,-8.718,-9.377,-0.652,4.932,-12.096,-3.205
81.62404,38.656,-27.028,-29.418,-0.61,-16.446,-64.844,15.599,-0.576,3.792,9.691,3.339,22.339
81.80939,36.9,-41.204,-27.374,-20.833,3.36,-40.71,11.147,7.915,20.031,4.319,-5.183,7.137
82.04027,37.587,-28.659,-26.202,-17.684,11.606,-30.962,15.279,3.782,4.228,5.529,14.825,9.84
82.42762,38.753,-22.936,-32.73,-59.484,18.523,-30.519,-20.871,8.243,1.3,5.35,-11.979,10.699
82.92857,39.95,11.765,-32.38,-42.768,-4.183,-38.286,-47.364,10.135,13.067,-3.545,-2.996,2.764
83.3649,40.11,-16.326,-43.359,-18.739,4.33,-64.619,-25.592,19.374,29.089,13.048,-6.427,-7.517
83.51433,39.043,-22.43,-54.209,-35.888,11.477,-30.517,-33.921,-14.798,31.963,10.448,-22.028,-3.417
83.75474,37.958,-50.43,-47.854,-66.337,9.994,-11.703,-6.203,-0.137,6.111,-4.615,-14.93,-16.014
84.21361,38.454,-34.874,-34.982,-36.267,1.325,-32.55,-28.117,-5.446,-2.291,-5.804,8.798,-24.023
84.42698,38.345,-31.295,-39.638,-37.25,2.615,-35.558,-24.942,-12.345,-7.324,-11.128,-5.462,-18.857
84.64644,37.978,-45.753,-45.797,-16.38,3.157,-35.403,-25.317,-9.613,0.072,-5.089,9.445,-2.652
84.89229,37.218,-53.412,-23.094,-42.343,-2.463,-66.893,-10.864,2.925,5.655,12.433,-6.846,-12.769
85.0878,37.385,-53.86,-27.576,-19.293,-11.416,-37.628,-11.799,-6.345,6.064,2.311,7.229,-17.131
85.46834,37.27,-53.28,-22.952,-27.655,10.772,-34.828,-17.198,6.666,5.142,6.616,-15.963,-0.577
85.75342,36.541,-57.214,-36.198,-47.025,-1.382,-30.991,-5.77,1.831,12.045,-7.76,0.944,-5.542
85.94884,37.142,-36.476,-30.796,-30.197,8.414,-21.456,-17.27,-8.806,2.134,-7.47,15.782,-13.862
86.14689,37.029,-42.16,-20.578,-27.22,15.99,-35.086,-21.242,14.56,3.347,-13.246,-10.001,-12.158
86.39546,37.396,-18.786,-14.911,-11.339,-5.045,-39.105,-5.353,-10.532,0.0,7.292,13.43,-0.854
86.61601,37.086,-30.993,-6.007,-19.437,-0.478,-41.923,-17.726,-8.535,-13.708,6.95,-9.617,8.89
86.82045,37.862,-32.115,-29.06,-20.846,8.348,-19.81,-17.929,-17.948,6.01,-0.774,1.626,0.418
86.92907,38.063,-52.888,8.594,-49.316,28.205,-45.332,-8.231,26.712,28.173,0.651,4.501,-14.921
87.0463,39.76,0.831,8.455,-43.473,2.584,-51.244,-14.699,-29.066,7.309,15.989,-0.897,-12.727
87.22567,41.244,-37.827,10.29,-13.68,38.843,-45.517,12.841,12.365,19.527,-2.34,-2.826,-8.316
87.70036,42.137,-9.335,-8.747,-30.745,42.35,-46.612,-2.554,-6.513,-18.789,-6.602,1.644,28.304
87.88571,42.698,-47.175,0.585,-16.663,37.811,-29.532,5.485,-11.286,-18.036,-11.215,2.702,17.567
88.07356,44.041,-47.532,75.38,-35.274,50.732,-29.346,28.586,14.576,6.322,-0.729,2.696,9.513
88.74032,46.513,-0.69,38.671,29.645,21.43,-36.196,3.433,4.375,-8.187,-4.657,-10.161,13.996
88.96177,44.256,-32.077,20.247,1.241,2.456,-30.561,2.945,11.324,-24.945,-7.896,-22.156,-1.689
89.1449,43.546,-17.512,20.475,-29.917,9.999,-30.071,12.014,11.829,-11.058,-12.383,0.411,7.18
89.34336,44.908,-43.351,41.171,-40.873,14.599,-32.126,-24.546,8.052,-26.898,0.427,7.993,-12.623
89.65147,47.357,-21.955,38.936,-7.532,18.484,-23.183,-19.833,12.837,-16.019,-3.445,-0.138,-25.276
89.81669,47.094,-17.489,28.378,-8.195,18.838,-21.84,-38.932,14.638,-13.534,-9.273,-5.579,-23.678
89.9829,45.967,0.89,25.471,-10.966,21.998,-20.105,-40.812,3.987,-9.275,-3.659,-16.357,-14.438
90.76122,44.743,16.328,-10.265,-35.762,28.056,-51.695,-17.468,15.35,21.811,-0.47,3.023,20.415
91.18558,45.129,68.176,-9.265,-29.831,34.197,-44.239,-30.706,2.006,13.555,0.169,5.429,37.543
91.30172,45.154,57.754,-8.216,-17.359,35.07,-26.352,-22.392,-21.651,6.023,-5.452,-12.012,45.069
91.63116,43.68,30.267,-8.484,-14.275,24.322,-52.911,-16.913,-9.667,9.22,-4.075,-1.804,25.818
92.06703,43.881,20.849,-17.789,-35.131,15.703,-52.652,-28.071,16.282,-4.26,-5.95,-1.66,7.948
92.46721,42.554,5.744,-30.68,-26.546,32.054,-28.897,12.515,4.947,-8.983,8.759,-2.827,1.939
92.64304,42.537,-14.559,-14.673,-41.429,28.429,-33.507,35.656,6.287,-14.75,0.53,-5.173,21.698
92.79964,44.536,43.454,7.253,-48.161,45.402,-36.09,11.123,15.473,7.979,-4.331,-2.383,31.546
93.76222,43.109,63.006,-31.511,-23.469,49.901,-46.95,-9.127,9.146,20.461,15.437,-9.353,32.736
94.17973,41.076,64.605,-29.541,-31.534,43.26,-43.602,2.384,-31.929,23.482,10.364,-19.364,44.587
94.88272,40.795,-9.369,-14.803,-25.912,21.065,-43.855,-15.353,1.41,-7.265,13.963,9.143,30.486
95.09714,42.099,6.948,-10.687,-41.535,18.133,-34.88,-23.34,7.472,-10.694,1.399,17.535,32.85
95.16662,43.699,35.054,13.927,-52.193,10.079,-34.18,-24.754,4.242,-2.786,-7.59,8.723,36.514
95.32349,45.914,25.558,-0.356,-15.235,12.767,-19.315,-37.269,-22.42,-6.734,-9.826,-13.434,27.422
95.76014,43.391,-23.907,22.199,-8.828,15.07,-44.126,-32.292,14.803,-20.278,-13.537,8.387,22.56
95.98009,44.032,-11.396,3.366,-49.981,0.877,-49.625,7.769,2.053,11.496,8.593,7.112,-1.744
96.58236,46.457,-1.327,32.585,-8.525,9.993,-27.191,-39.782,-14.689,-4.278,6.56,-3.139,-4.592
97.40227,44.041,-25.571,20.935,-2.853,19.953,-41.211,-18.011,10.852,-9.43,8.569,-4.284,2.816
97.93438,42.323,-19.817,-1.687,-15.026,18.982,-38.357,-2.578,7.713,8.886,10.455,-5.804,14.631
98.32535,42.008,-16.881,-9.042,-39.791,33.508,-27.13,-1.2,-6.118,-2.172,-7.787,-10.948,-0.627
98.58617,42.887,-26.333,15.131,-23.42,27.091,-42.548,6.303,3.785,0.524,-2.091,4.254,19.433
98.73179,43.489,-28.13,52.402,-17.655,47.165,-47.823,18.831,20.411,-1.479,4.797,-0.043,15.528
98.82961,45.006,-11.887,73.058,-2.742,35.657,-44.275,24.353,15.302,3.303,4.129,2.16,11.553
98.90544,46.815,-2.534,69.921,-11.176,49.893,-38.217,3.532,17.573,4.275,-1.544,3.077,10.849
99.01088,46.558,-10.102,16.494,23.913,20.932,-42.129,-5.805,1.514,-5.059,1.499,-10.232,21.022
99.4449,43.701,-32.504,-17.848,-19.964,16.108,-48.629,3.718,-3.956,4.589,8.799,8.948,7.977
99.8859,43.955,-14.586,13.169,-15.861,14.491,-37.717,-20.311,4.257,-4.946,1.328,-4.119,6.708
100.762,41.417,-17.581,7.729,-12.563,-10.351,-51.664,10.784,8.191,10.587,-4.552,-16.032,3.714
100.93619,39.236,-23.393,17.86,1.206,10.79,-28.767,15.605,-1.272,3.195,0.776,-15.667,-3.183
101.10005,38.796,-19.288,21.558,-54.933,15.464,-31.195,10.826,10.438,3.542,17.014,-3.099,5.507
101.38517,41.496,11.859,-18.296,-24.923,49.084,-42.1,-8.718,-4.89,12.246,-0.433,5.649,24.959
101.47737,41.733,36.446,-21.259,-24.286,49.863,-38.503,-14.37,-11.348,8.282,-3.959,2.887,27.166
101.8371,42.48,-14.775,25.863,-18.924,49.04,-37.018,42.631,-16.264,-7.948,7.861,-1.599,24.251
102.13968,42.825,-48.734,88.421,-0.8,31.47,-32.495,33.172,0.635,-19.686,4.856,5.078,28.94
102.22041,43.605,-15.911,70.819,14.062,12.83,-33.156,25.0,22.17,-8.847,-8.131,-11.125,9.311
102.93465,41.685,-21.096,-6.962,0.249,-16.562,-57.719,35.918,2.191,-2.461,14.872,-8.651,10.969
103.11542,41.715,-36.867,24.367,-22.286,-10.799,-37.203,15.04,0.969,-19.668,10.039,-1.64,-19.263
103.31642,43.992,-12.216,41.053,-37.89,20.168,-32.516,-12.934,2.996,-12.815,3.273,2.278,-32.04
103.59043,46.288,-6.103,33.319,-24.815,0.676,-35.643,-12.407,7.592,-14.373,5.369,-4.766,-39.441
103.9858,45.898,15.735,46.933,-2.172,2.496,-25.6,-32.415,2.837,-17.107,-1.198,-10.429,-32.104
104.12417,45.329,16.702,49.019,-12.952,5.557,-21.94,-24.04,-11.915,-11.096,-9.291,-12.269,-25.64
104.50136,42.793,-8.386,27.537,9.529,10.595,-28.373,-35.839,-1.842,-17.824,3.152,-16.89,-16.463
105.32594,40.38,-9.471,-3.505,-5.958,23.457,-60.708,-22.452,8.869,5.969,3.459,-4.018,-14.098
105.44771,40.603,-16.198,26.402,-27.519,28.69,-29.186,-6.257,-1.353,4.762,16.924,-9.046,-0.162
105.65034,40.278,-21.272,33.843,-35.532,31.16,-46.148,1.569,-6.225,0.986,9.421,-6.186,2.784
105.80286,43.182,-4.175,33.376,-51.251,30.82,-29.813,-19.717,5.707,3.502,5.922,5.194,-0.993
106.0224,45.058,16.431,18.753,-4.354,23.158,-28.778,-22.884,-0.607,-16.107,-8.148,-7.063,-5.528
106.41279,43.653,-29.728,-26.127,-21.785,1.301,-53.322,-15.946,-1.641,-3.652,8.398,2.697,-8.834
106.84073,43.613,-10.899,-9.397,-30.045,0.838,-34.078,-42.816,4.286,-0.964,4.892,-4.902,-23.325
107.05274,43.334,20.029,-33.956,-34.925,-18.341,-47.797,-19.578,-6.916,5.468,11.628,-5.349,-8.302
107.23451,42.429,-6.192,-33.357,-44.651,-10.991,-34.733,-49.518,4.952,11.116,7.719,2.908,-6.452
107.65415,41.318,44.559,-23.855,-51.418,-0.28,-13.672,-51.007,-11.177,12.102,11.429,-16.223,-2.154
107.90825,39.255,6.181,-31.949,-9.349,-11.434,-28.751,-39.385,-8.175,7.65,16.836,-12.2,-15.574
108.14798,41.025,-0.464,-9.15,-21.593,7.341,-39.903,4.98,-1.144,-0.391,8.775,-11.877,13.616
108.43161,39.071,-19.309,-17.58,-46.377,7.043,-34.38,-21.552,-8.883,-9.849,5.571,-5.235,-0.18
108.57737,41.286,9.61,-22.81,-35.675,-4.859,-41.613,-33.628,9.281,-11.033,-10.132,6.097,-4.709
108.78626,41.743,10.664,-31.465,-24.769,4.858,-34.58,-20.391,-4.774,12.21,-2.68,7.975,-5.755
109.1171,41.235,25.433,-13.567,-42.41,-1.487,-26.081,-27.221,-5.059,14.791,6.618,-7.434,-6.256
109.45361,42.309,-21.222,-28.072,-16.313,14.687,-58.34,-25.123,7.175,23.514,1.625,-10.356,-8.865
109.78413,40.16,-7.616,-20.181,-38.27,18.937,-43.491,-29.95,-3.425,7.282,15.472,-8.085,-23.152
109.88989,41.517,-34.802,-56.115,-13.785,14.324,-66.139,-8.42,-18.286,7.446,10.926,-2.269,-19.553
110.3244,39.408,-7.153,-15.61,-17.198,7.588,-68.683,-24.845,-1.862,-13.372,3.172,-7.725,-17.451
110.42494,40.371,-32.208,-4.524,-53.905,8.284,-30.695,-10.65,16.409,-8.793,4.818,2.06,-13.068
110.74204,42.024,-2.545,-21.346,-28.589,-2.508,-55.393,-23.165,2.144,3.337,21.689,-1.831,-1.148
110.91642,40.521,-21.644,1.736,-36.261,15.911,-26.619,-15.014,10.994,5.585,-11.698,4.352,-3.322
111.16571,41.534,-16.187,-26.606,13.367,-7.297,-34.4,-11.46,-28.676,-2.494,17.697,7.473,-3.529
111.37152,39.529,-30.747,-31.697,-13.68,15.872,-19.688,3.693,-12.215,20.694,-6.704,-1.991,-18.387
111.60113,40.915,-22.637,-48.651,47.392,-4.257,-64.963,11.787,-4.827,5.217,24.576,8.687,-0.736
111.81569,37.574,-2.202,-43.167,6.282,4.108,-81.779,-3.81,-17.795,-2.978,32.753,-8.044,1.396
111.91528,36.814,-11.205,-28.604,1.821,1.675,-66.37,11.333,-11.198,-0.439,21.386,-3.363,11.956
112.02045,38.363,19.91,-23.416,24.15,6.918,-48.144,12.382,-33.013,-0.385,23.301,-11.232,-3.29
112.24803,36.276,4.408,-29.766,-34.685,5.315,-34.295,7.122,-9.363,-4.644,-14.23,9.364,0.659
112.48086,38.821,-10.574,-12.114,29.188,-2.638,-108.116,19.673,5.432,16.091,12.592,-16.749,8.041
112.65034,36.361,-26.003,-1.444,-30.394,14.442,-34.682,29.329,-8.014,21.949,0.681,-6.836,-1.266
112.91542,38.386,-4.615,-17.301,20.287,-4.063,-83.388,13.714,-2.003,4.134,33.874,-25.85,1.006
113.1341,36.502,-14.946,-19.556,-28.251,13.563,-51.11,31.452,-17.916,3.313,5.291,-7.726,-0.876
113.34068,40.011,-8.287,-17.609,13.588,-3.41,-78.034,26.849,-2.369,11.026,33.682,-12.977,3.655
113.55265,38.825,-13.824,-16.503,-3.502,9.301,-73.696,6.417,-6.051,1.895,35.824,-9.141,15.951
113.64998,38.827,-33.393,-31.177,-10.907,8.322,-57.133,-0.622,-17.792,-1.808,39.722,0.286,-2.105
113.75465,39.903,-6.073,-27.188,10.824,11.311,-37.811,-3.183,-34.498,3.22,13.303,-14.19,1.839
113.98789,37.663,-13.218,-29.714,-12.666,9.408,-38.931,16.698,-21.258,7.133,0.696,11.995,12.342
114.21265,38.961,-17.616,-0.736,32.584,22.552,-78.928,24.935,-13.28,8.105,36.947,-8.429,0.914
114.3858,37.048,-27.52,-3.218,-29.589,7.162,-18.277,32.735,-5.758,18.454,17.643,-15.457,15.13
114.65565,38.916,-5.201,-16.982,19.807,-3.52,-88.585,9.896,0.349,-1.309,32.657,-16.648,17.545
114.83338,36.756,-25.315,3.507,-28.819,16.621,-37.699,37.008,-12.013,21.692,15.42,-0.483,-1.651
115.04367,43.194,46.703,49.854,-82.683,11.948,21.867,55.064,7.838,0.921,-5.488,-4.907,13.712
115.54776,45.227,80.539,31.12,21.117,17.402,-29.393,45.345,-0.59,18.188,4.029,-29.002,9.452
115.79265,48.574,86.375,64.353,-0.591,48.709,-36.156,35.253,10.905,23.44,11.518,3.838,8.134
115.96077,47.379,61.665,27.206,50.467,26.85,-33.461,47.361,5.01,11.515,-0.46,-48.878,5.683
116.17642,42.038,48.188,22.229,-27.368,29.498,-43.742,36.254,9.849,27.177,7.649,-11.127,-4.626
116.39166,44.168,73.226,33.591,-30.127,32.182,-42.967,18.167,3.785,15.727,18.168,-3.366,1.781
116.56957,43.326,63.741,-15.291,30.907,37.939,-33.689,3.965,-17.473,16.037,14.64,-30.305,13.889
116.80472,44.591,47.716,15.811,-29.078,12.226,9.144,18.944,13.984,17.941,16.038,12.118,-10.589
117.03351,45.226,76.709,29.292,-17.746,15.822,-38.004,16.893,16.317,16.938,4.029,-15.087,21.019
117.17909,44.876,77.64,-7.258,26.258,16.764,-29.422,17.084,-20.473,15.41,7.315,-39.344,16.466
117.4156,41.807,27.022,19.181,-80.567,15.573,-24.698,10.564,3.407,9.01,15.781,-10.65,0.967
117.66177,47.347,79.031,27.314,-25.406,22.265,-8.239,43.535,2.563,14.053,5.628,7.061,16.636
117.89941,45.317,58.444,6.921,29.429,9.124,-28.605,24.102,-10.616,-2.397,7.191,-36.736,24.286
118.51615,45.439,17.552,41.307,-68.002,26.048,14.416,22.265,5.339,18.885,17.375,-8.474,-29.674
118.73029,46.78,44.565,32.678,-12.234,-13.184,-32.742,30.691,11.383,28.639,-2.491,-7.34,-13.387
118.97488,44.427,68.033,27.333,-18.92,16.926,-14.485,28.715,2.903,14.46,14.276,-12.339,5.392
119.21705,47.976,49.923,28.462,0.603,39.065,7.631,39.666,17.261,26.776,2.359,-24.289,4.018
119.65166,42.028,35.04,11.302,-56.909,19.696,-29.167,31.297,5.633,19.997,6.3,-3.533,0.198
119.84363,43.813,39.386,-1.614,-28.149,21.614,-15.506,8.58,15.792,17.349,-0.025,-14.526,3.977
120.21773,44.144,61.306,7.841,-110.149,3.2,-19.653,-0.396,6.775,5.038,14.716,-6.882,4.047
120.51125,47.382,93.389,17.287,-27.818,5.851,-24.1,12.729,27.696,10.617,-3.657,5.324,21.614
120.61628,46.95,89.944,15.357,23.858,31.172,-33.201,14.923,-1.23,14.029,7.92,-33.677,18.04
120.9356,45.725,54.004,23.486,-6.559,40.239,-24.28,-10.194,-0.602,8.229,7.965,-7.027,-1.58
121.16744,44.898,48.971,-8.215,22.891,11.267,-32.441,-14.119,18.934,8.292,-7.4,-3.454,8.477
121.56862,44.471,40.292,6.668,-33.055,3.759,3.874,14.376,-4.908,3.534,14.307,-30.71,1.526
121.9917,47.628,29.591,47.753,-61.438,8.857,-3.18,38.233,37.939,13.124,9.686,19.732,-16.694
122.3522,49.076,90.975,26.719,41.035,-23.365,-21.829,50.947,9.359,-15.328,-3.205,-18.379,17.259
122.47587,47.868,94.352,26.22,6.772,2.911,-27.253,38.593,13.542,13.193,-5.145,-21.129,9.96
122.71288,48.55,54.949,40.567,26.941,27.483,-5.027,45.944,29.701,15.149,9.614,-13.302,5.213
123.11782,43.154,33.917,12.356,-26.617,26.462,-41.982,14.477,22.993,9.895,7.907,1.489,20.956
123.34476,45.254,61.676,5.984,-22.699,32.978,-43.28,2.942,-8.815,30.442,24.22,-20.476,5.299
123.46562,44.991,31.447,-20.623,-4.477,46.245,-46.772,-18.072,15.674,37.757,12.959,-4.491,3.7
123.71628,46.521,70.439,12.8,-73.861,14.349,-10.974,-3.023,-19.615,18.602,15.053,-16.188,-4.013
123.9946,47.344,73.222,17.934,8.259,10.623,-27.296,12.199,15.716,7.773,-7.229,-28.736,10.203
124.39528,43.971,37.099,14.075,-34.34,30.973,-5.534,-8.467,-6.999,7.532,-3.454,-13.199,3.368
124.62721,48.25,84.183,21.307,48.398,29.288,-6.932,18.878,1.772,-0.83,9.491,-38.431,21.38
125.45882,44.858,12.912,56.696,-94.29,17.387,5.739,36.395,16.531,21.725,9.545,-6.735,-19.148
125.82272,48.486,19.04,32.348,32.448,8.656,-17.579,50.505,-13.656,40.167,22.162,-35.188,1.829
125.92612,46.888,34.46,15.842,-17.689,20.045,-21.259,24.589,13.559,18.391,5.088,-15.535,4.111
126.17732,48.12,38.324,42.149,-0.097,25.971,-3.979,46.576,12.237,13.911,18.049,-25.381,7.02
126.55592,43.423,11.766,6.322,-58.402,-2.542,-38.323,34.613,16.05,14.086,12.018,-8.89,12.65
126.82317,46.075,35.501,-2.399,-14.442,46.694,-40.39,-20.033,24.908,31.069,12.751,-3.182,-7.859
127.19279,47.057,76.042,24.264,-61.555,2.603,1.63,-5.958,-1.593,4.997,23.047,-21.823,-12.003
127.4727,48.497,60.251,11.603,-34.176,22.422,-11.529,10.494,1.89,17.438,-3.71,-0.948,-0.402
127.59927,47.683,50.866,-7.934,25.146,29.256,-40.049,0.463,9.307,14.347,0.411,-18.17,20.139
127.88227,47.964,32.412,15.315,-10.18,62.495,-25.199,3.431,9.746,18.814,9.345,-17.229,16.055
128.10449,45.806,28.896,-12.747,18.358,30.109,-23.605,11.805,6.44,12.69,3.538,-22.481,14.086
128.53447,48.004,34.953,0.875,-6.727,19.744,5.477,17.162,11.649,10.57,11.022,-21.791,-5.642
128.96136,50.519,40.814,37.411,-33.087,2.871,-11.935,41.315,27.619,10.942,7.449,14.067,-10.089
129.4278,50.19,89.155,25.017,13.913,21.417,-9.582,39.621,-6.05,7.334,0.016,-31.896,11.953
129.65111,49.618,64.179,55.583,-32.523,16.907,5.669,48.39,15.016,12.201,19.198,-11.387,-1.108
129.83438,48.9,56.784,15.518,49.745,15.065,-39.62,45.771,20.278,8.802,-1.796,-42.143,29.421
130.06649,43.66,24.189,0.154,-21.905,16.832,-39.045,15.644,19.29,20.002,11.252,-13.224,-4.145
130.28662,45.529,58.25,-7.158,-17.353,22.627,-19.736,-7.049,10.422,15.96,30.199,-0.672,-7.396
130.72848,49.117,37.84,1.584,-11.119,12.853,-11.498,11.501,10.112,22.714,18.328,-4.078,-16.225
130.97197,46.769,47.016,1.917,-12.463,23.3,-23.064,11.37,6.689,13.75,-5.066,-17.981,8.063
131.35138,45.219,27.454,29.381,-62.098,26.459,-10.929,25.825,13.609,11.575,1.299,-16.511,0.311
131.55914,46.934,18.779,2.833,-15.624,7.684,-6.933,17.573,16.605,3.584,-3.487,-42.032,7.477
132.40449,45.247,12.442,38.103,-109.192,6.297,-8.812,35.789,4.718,13.961,12.136,-16.282,-11.359
132.73134,48.591,49.753,44.055,19.774,6.121,-49.005,32.961,-5.001,31.21,8.827,-33.977,-2.776
132.91138,47.484,47.524,39.67,12.034,26.795,-41.444,40.343,9.854,27.871,22.97,-20.215,-4.485
133.13728,49.881,38.705,70.865,-18.354,22.311,-6.06,54.99,16.546,4.399,22.267,-8.659,-4.107
133.2478,50.295,44.536,41.436,45.431,25.497,-26.789,48.889,28.66,10.004,2.383,-39.135,14.909
133.57565,45.863,24.167,25.691,-15.581,15.567,-32.288,21.256,18.008,5.633,-4.051,-2.647,-1.025
133.77011,46.996,46.068,15.838,-7.106,33.761,-23.742,5.431,23.228,10.29,4.725,-11.456,-9.592
134.19973,50.129,73.241,10.854,-20.521,12.314,-5.984,2.725,0.081,7.528,24.724,-7.208,-23.595
134.49596,49.07,60.623,11.391,15.239,30.361,-42.295,21.371,16.967,10.626,10.684,-25.906,10.562
134.81501,46.442,44.34,8.405,-24.484,19.587,-25.97,9.696,-0.572,1.688,8.429,-23.761,2.235
135.08204,48.506,38.837,5.658,11.565,29.309,-38.136,7.734,-2.169,5.055,-2.557,-1.386,-0.294
135.49474,49.082,51.165,4.391,-9.554,7.562,-14.813,28.848,-4.64,-1.019,-8.043,-26.746,-0.952
135.91211,50.383,19.328,37.083,-37.622,40.79,3.296,39.904,30.898,21.537,7.688,-5.258,-16.764
136.07696,51.962,63.023,66.367,-13.172,-14.338,-35.905,53.906,35.902,-6.971,-11.563,-5.13,6.432
136.47533,51.009,70.508,51.302,29.85,31.741,-45.535,39.453,-2.422,15.075,2.435,-17.019,1.956
136.62644,50.263,52.63,54.521,6.588,33.726,-13.592,27.672,12.561,13.102,6.576,-21.149,8.916
137.04567,45.524,27.052,15.105,-17.651,19.995,-45.386,6.069,8.568,15.929,6.6,-2.812,-9.8
137.25855,47.199,19.684,6.686,-27.975,30.811,-56.23,0.528,-12.834,25.681,20.663,-10.282,-11.711
137.35841,46.872,27.533,13.674,-2.515,40.463,-58.166,-12.599,4.435,32.979,9.943,-8.558,-15.458
137.47964,46.546,73.944,-20.952,-16.187,30.047,-42.412,-17.177,-7.41,10.761,3.003,8.053,4.307
137.70027,50.983,37.144,23.135,4.94,7.575,-33.281,11.635,2.767,14.899,10.376,-21.895,-23.401
137.93229,48.687,59.995,23.77,-18.81,17.114,-32.406,14.705,-0.852,15.852,7.987,1.103,2.936
138.03882,48.222,61.339,-3.614,16.944,31.488,-28.756,10.203,8.23,3.089,-0.583,-34.101,4.525
138.32649,47.374,40.253,22.021,-46.429,33.64,2.625,12.006,1.524,11.861,13.595,-6.953,-1.45
138.51923,48.631,43.349,26.585,-32.224,35.708,9.197,3.453,3.104,3.861,0.102,-34.55,13.45
139.21528,44.287,40.713,-15.245,-9.018,-9.333,-32.352,17.468,-15.859,8.07,1.254,-6.702,-11.314
139.34921,46.855,19.216,39.353,-93.898,2.982,-12.315,29.309,-8.49,9.876,13.214,-15.63,-10.465
139.87052,48.912,39.972,10.409,2.326,18.694,-44.127,9.272,2.689,14.535,12.736,-18.888,4.453
140.05714,49.01,17.877,26.468,-70.558,31.059,-0.985,31.046,14.355,4.516,10.646,-28.344,16.058
140.50014,45.804,-4.765,-7.095,-27.411,19.649,-35.554,15.553,4.708,2.592,3.382,-10.395,12.798
140.7366,48.06,33.177,-13.858,-25.921,27.567,-51.802,-5.915,12.83,7.427,27.089,-15.719,3.247
141.09601,48.223,55.035,1.883,-93.867,14.99,-13.919,-14.477,-13.513,5.812,10.029,-8.747,-0.274
141.39841,48.752,57.405,-0.769,-18.323,32.698,-30.011,0.356,7.808,16.947,1.047,-18.717,2.848
141.81043,48.146,31.79,6.769,-5.026,37.769,-9.627,1.097,0.276,10.944,9.704,-10.395,5.789
142.03673,49.475,33.048,-9.897,17.654,42.645,-17.839,2.407,-5.831,-1.399,-0.747,-4.167,-8.879
142.43701,44.726,26.805,-29.904,73.856,4.4,5.652,5.585,-3.705,6.217,-24.802,-53.228,1.309
143.76653,32.96,1.932,42.071,-13.927,-24.312,-25.361,23.426,22.813,-1.232,-5.53,-9.772,-33.848
143.99274,32.739,27.464,55.105,12.445,-31.3,-18.66,23.394,9.163,-11.942,6.619,-21.119,-34.357
144.11905,31.241,24.325,64.633,-17.391,0.191,-27.133,24.042,14.759,1.382,-2.897,-8.845,-20.275
144.53878,30.48,33.114,90.192,7.339,9.009,-19.236,3.006,-11.193,-15.167,1.624,-13.07,-25.166
145.05515,27.021,-9.454,91.897,15.354,25.143,-19.683,9.346,3.265,-14.241,-1.067,-16.584,-6.498
145.43868,28.262,-20.227,63.55,-24.489,24.99,-37.401,20.722,5.425,-9.631,18.591,-10.332,10.615
145.6341,30.274,-36.882,-20.329,-29.641,22.106,-39.07,7.736,-0.603,-10.368,0.762,5.659,16.668
145.77351,30.411,-38.897,-32.063,-35.864,-0.44,-32.606,-17.47,-6.142,-14.485,-0.955,-7.494,21.872
145.92481,31.015,-36.954,-33.393,-27.72,3.806,-44.36,-7.573,-7.155,1.679,0.707,14.033,36.475
146.11669,30.562,-18.822,-27.297,-23.612,16.271,-56.793,-3.385,-4.959,-5.685,6.436,-2.537,31.285
146.24141,30.466,-27.257,-32.325,-32.164,44.648,-42.441,8.165,-4.054,-4.522,4.039,1.241,18.115
146.77247,29.918,93.852,-21.01,-47.997,49.543,-19.378,-24.793,8.44,17.624,-32.687,2.694,10.524
147.06853,28.496,-7.848,0.295,-29.421,24.927,-32.907,-1.984,-13.39,-13.702,13.606,2.292,-9.582
147.16308,29.207,1.553,-3.568,-20.215,36.858,-33.433,-19.645,7.691,-0.457,6.094,-16.913,12.041
147.35964,27.724,-34.927,-46.274,-37.493,31.074,-29.59,-20.784,-29.56,-18.933,9.175,-16.27,14.503
148.05447,26.425,-112.939,-59.697,-57.606,11.298,-34.238,-42.579,17.548,-1.872,-2.866,-2.145,5.456
148.26535,24.642,-73.321,-43.114,-59.22,2.779,-33.619,-50.906,6.09,-5.928,-8.404,4.592,-1.515
148.49578,25.457,-98.387,-54.195,-56.893,-1.499,-34.986,-52.534,-1.012,4.406,-0.017,6.783,0.287
148.64707,25.214,-73.962,-46.897,-34.937,-10.463,-36.718,-50.329,7.881,-6.388,-8.039,3.977,1.12
149.00948,24.561,-79.929,-36.59,-51.468,-13.017,-25.714,-41.455,-8.685,-15.21,-14.287,4.91,-3.584
149.12023,25.218,-82.434,-48.62,-42.929,-5.032,-45.462,-34.268,6.72,-16.083,6.444,1.496,6.307
149.54494,24.298,-45.471,-12.543,-45.799,-25.92,-33.351,12.108,5.33,-6.387,6.992,-3.164,-1.256
150.11719,25.113,-48.483,-1.574,-26.953,-14.084,-33.607,-0.541,6.833,-1.123,0.176,-12.423,-5.114
150.54993,23.842,-43.729,-0.062,-23.27,-21.146,-38.498,14.851,3.662,-5.401,-1.354,-4.545,-0.637
150.6712,24.392,-29.032,-6.639,-26.151,-7.726,-36.063,0.505,0.026,5.995,4.082,-5.88,-8.002
151.26834,27.33,-8.228,-21.839,-46.379,21.222,-20.323,2.39,-0.872,-20.966,-6.042,-19.248,-16.009
151.4337,26.388,-120.028,-48.646,-53.769,-1.894,-32.24,-40.497,7.44,-5.84,1.496,-0.392,2.486
151.56961,27.403,-66.814,-51.025,-74.922,-0.837,-31.169,-32.732,12.077,0.572,-2.985,7.403,7.101
151.76544,29.176,-44.183,-73.482,-62.211,9.28,-41.247,-43.029,12.137,-4.73,-4.356,-2.598,-1.157
151.90331,30.999,-25.382,-39.949,-82.358,27.039,-18.795,-6.296,-10.445,3.758,-5.847,2.072,17.33
152.31946,33.569,-43.412,10.378,-21.977,36.281,-50.936,23.919,4.192,-14.609,0.295,0.655,19.969
152.41147,33.464,1.172,-10.715,3.747,22.274,-33.504,-11.165,15.745,-10.212,-18.776,-12.517,-3.182
152.54998,31.021,92.312,-31.904,-54.76,42.399,-18.759,-13.343,-53.264,1.984,-5.624,-12.405,24.034
152.89723,32.75,-4.625,-10.694,-92.056,13.346,-28.348,-37.669,0.155,-8.616,1.548,12.446,-8.364
153.11932,36.669,2.834,45.511,-57.885,24.463,-14.668,-43.566,-14.854,7.224,13.45,-4.702,-18.961
153.2932,39.168,1.304,56.285,-25.705,16.516,-19.716,-51.627,-18.642,2.337,-0.856,4.74,-35.826
153.62875,39.41,6.54,62.628,-2.039,25.54,-16.549,-53.545,-11.015,8.586,-3.147,-10.258,-39.956
154.29669,33.466,-42.113,26.836,-5.192,24.479,-26.609,-41.729,-27.248,-7.5,-6.033,-18.807,-29.055
154.53905,33.721,-81.243,15.849,-11.226,35.701,-38.93,-24.082,-20.861,7.802,7.644,-2.304,5.71
154.64449,35.64,-36.109,46.114,-49.669,62.183,-36.828,-12.405,9.565,24.728,0.745,24.298,5.589
154.84739,38.353,-6.349,57.175,-5.562,66.507,-28.426,-22.138,-1.503,16.313,-0.354,-8.872,10.223
155.50372,33.148,-54.995,16.854,3.06,36.059,-18.17,-15.119,5.81,-6.258,0.402,-12.578,-0.307
155.80776,30.995,-46.932,-9.54,-18.872,27.177,-30.422,-18.551,13.895,-15.541,-2.479,1.794,1.774
156.21283,30.775,-21.726,-34.269,-40.524,-7.491,-39.787,-26.32,0.272,12.636,-5.254,5.28,0.662
156.32295,30.667,-20.28,-28.324,-33.317,-3.706,-29.288,-22.155,-13.677,-11.291,-4.035,-13.084,4.029
158.0932,24.008,-55.35,-9.593,-20.458,-9.181,-39.246,-13.558,14.209,-8.376,-8.006,2.096,-3.785
158.91832,21.467,3.677,16.264,-4.791,10.831,-39.1,-2.173,-10.377,-9.776,-4.617,1.689,-8.211
159.1093,20.288,-13.313,25.782,-12.283,0.954,-31.441,-3.819,-6.703,-12.046,2.537,-1.586,-15.772
159.29977,21.352,-23.215,9.209,-36.11,33.174,-24.513,-26.085,-1.127,-10.87,-14.314,-4.858,-10.01
159.4683,27.217,22.149,-31.674,-43.523,18.218,1.744,-15.999,3.62,-23.589,-6.259,4.93,-0.757
159.63741,30.56,32.755,23.224,-68.357,-1.127,11.724,-17.842,0.451,-23.53,-4.637,5.102,-35.39
159.7883,33.572,28.118,20.707,-0.959,6.178,-10.078,-32.014,-3.341,-13.868,2.524,-35.29,-32.975
160.1244,28.751,-51.367,-37.931,-39.651,17.0,-21.536,-7.092,5.202,-25.368,-2.774,-14.19,-1.343
160.818,26.754,-109.339,-51.377,-55.699,-14.107,-35.228,-18.918,3.97,-20.07,-9.725,6.047,-0.629
161.39646,27.194,-97.836,-35.851,-45.015,-19.558,-36.588,-10.397,3.961,-12.587,-14.62,-7.607,6.312
161.58821,27.076,-82.129,-36.493,-47.858,-16.814,-32.685,-8.915,-6.925,-13.877,-9.31,-0.125,-1.697
161.79039,27.797,-89.799,-23.585,-22.115,-29.688,-24.504,-19.865,10.438,-10.187,-4.963,-6.924,-2.607
162.62299,24.457,-62.975,-14.752,-36.82,-16.942,-30.033,-3.93,-1.169,0.178,0.214,-4.703,-11.094
163.36912,23.51,-45.271,-1.559,-36.151,14.918,-35.195,-12.613,9.646,3.566,-2.319,-8.115,-13.751
163.55066,22.496,-39.995,-1.308,-19.842,-2.349,-34.478,-3.039,11.06,1.404,2.047,-10.956,-17.496
164.17574,25.5,-10.382,-40.124,-64.189,-3.62,-25.808,-24.319,-7.7,-19.401,6.991,-0.081,-4.968
164.44376,31.762,19.331,13.949,-44.703,-28.364,-9.804,-25.675,-8.034,-20.495,2.104,6.561,-27.695
164.57719,33.688,30.048,6.559,-28.345,-6.369,-26.289,-29.525,3.211,-22.461,-3.208,-6.088,-31.201
164.69909,31.798,11.625,-14.242,34.438,5.165,-19.42,-34.367,3.186,-18.825,-8.447,-37.839,-28.409
164.94753,26.747,-39.451,-50.115,-21.365,10.372,-16.865,-14.745,-10.283,-29.233,1.562,-8.325,-5.97
165.59488,24.343,-95.55,-66.669,-49.866,5.734,-41.49,-25.619,1.879,-10.003,-11.253,-3.681,-5.486
166.13175,23.05,-53.247,-46.175,-36.845,-5.964,-39.97,17.055,-9.211,-7.206,5.824,0.385,1.499
166.44136,24.917,-62.695,-24.992,-68.76,5.683,-28.038,5.052,-0.413,-22.483,0.899,-5.657,3.897
166.71351,30.931,-13.443,-38.303,6.406,26.123,-13.53,3.741,8.453,-32.587,-32.242,-28.377,13.316
167.12095,27.441,-27.915,-19.143,-64.327,22.876,-25.001,26.985,11.48,-59.016,-8.076,0.933,-0.562
167.26354,30.082,-14.478,-30.295,-45.573,8.105,-35.001,-3.74,3.619,-27.723,-5.229,-2.881,15.255
167.40295,30.195,-27.43,-29.575,-49.895,1.518,-33.508,-19.764,12.598,-20.514,-3.849,-2.988,-11.428
167.78662,29.043,-31.36,-49.455,-13.893,2.467,-31.975,-29.632,-9.311,-25.554,-5.513,-16.514,-13.787
168.38989,24.598,-55.517,-34.015,-20.738,-11.864,-36.234,2.128,-1.882,-4.215,-7.84,-0.119,-19.505
168.81356,24.304,-55.727,-45.056,-30.205,-14.099,-52.861,4.222,-8.502,-4.803,10.538,-5.619,-0.728
169.4361,22.794,-57.902,-39.558,-30.358,-12.72,-36.633,-4.619,10.899,-4.764,-0.24,-5.959,-10.377
170.11542,22.95,-71.683,-24.21,-50.507,3.167,-37.618,14.217,3.413,-1.7,-3.537,-1.056,-8.44
170.26957,23.838,-73.662,-30.477,-28.08,0.614,-50.136,4.381,-11.596,-14.692,8.554,-10.706,-5.639
170.45887,24.046,-88.32,-16.625,-36.568,2.301,-39.016,17.246,-0.623,-11.414,3.177,1.732,-7.532
170.65841,25.419,-77.062,-24.807,-32.063,-3.684,-44.364,15.677,-12.252,-3.364,-9.686,4.748,-7.612
170.81546,27.516,-46.293,-9.831,-67.927,6.497,-33.076,11.516,27.497,4.88,-20.571,-6.728,-7.545
171.22023,29.362,-56.059,-22.861,-39.332,29.56,-37.13,28.077,7.673,-17.392,-0.913,-11.998,5.223
171.51791,29.443,-57.035,-51.056,-46.917,6.195,-41.365,-9.398,1.893,-17.754,-4.006,-11.151,4.923
171.75497,33.394,-12.427,-8.908,-83.986,25.559,-2.713,-9.403,4.726,-4.556,1.759,4.674,7.277
172.19859,35.649,47.043,-32.033,-27.723,-21.774,7.639,-67.976,-35.227,4.802,-3.943,2.05,-7.377
172.41524,35.668,44.736,-12.558,-56.49,-8.671,-17.754,-85.274,1.139,18.251,-5.511,18.888,-0.839
172.64757,37.396,96.095,-11.544,-49.86,-6.013,-21.353,-101.553,1.964,24.149,3.338,8.471,-1.466
172.91905,37.423,113.105,-12.18,-32.432,-20.268,-6.696,-100.694,-24.82,5.651,9.81,-21.136,-7.835
173.63891,33.583,33.828,16.487,-80.74,-5.558,3.981,-57.543,-12.89,-6.772,-2.102,15.653,-18.861
173.81878,35.458,-15.246,34.281,9.373,26.446,-12.79,-52.401,-0.959,0.611,2.636,-40.392,-26.6
174.74245,29.236,-33.736,-48.7,-49.931,-0.127,-34.164,-44.825,-2.672,-13.248,3.558,-3.718,-11.619
175.01474,29.229,-23.677,-60.865,-67.409,7.946,-31.943,-36.339,-2.501,-14.473,-1.782,-5.013,-7.935
175.33755,31.46,-6.217,-13.809,-42.141,12.595,-40.148,-11.884,-0.023,7.484,8.473,1.933,27.883
175.45125,33.711,8.973,10.693,-51.368,44.792,-33.056,11.377,6.665,23.832,7.959,1.019,38.597
175.82875,34.073,-8.876,-36.328,3.77,32.863,-25.412,-4.598,-20.39,11.136,7.889,-20.845,36.514
176.53946,26.165,-73.522,-27.982,-21.25,5.947,-31.999,6.694,-6.22,-10.772,5.26,-11.333,12.923
177.48739,23.441,-60.112,-38.825,-32.384,-8.803,-52.921,0.737,3.807,-12.08,5.945,0.834,-1.872
177.87673,23.143,-40.624,-30.06,-29.819,-11.27,-35.558,-6.837,-9.044,-14.079,1.551,-5.158,-4.739
178.04009,22.922,-39.515,-15.689,-29.112,-10.803,-35.788,-11.539,3.259,2.705,5.579,-7.239,-5.803
179.10658,26.582,9.689,-35.063,-65.011,7.121,-9.731,-19.372,7.312,-15.659,-4.162,9.901,-4.211
179.32562,29.925,-10.904,-2.709,-51.02,36.438,-30.292,11.111,-10.654,-6.7,4.479,0.473,3.213
179.48435,31.992,-30.877,38.547,-5.898,52.042,-33.78,24.603,10.979,5.299,3.723,-27.118,12.762
180.10027,26.627,-49.032,-13.018,-37.02,65.623,-45.127,10.799,30.008,-3.393,-6.462,-2.936,5.939
180.19111,27.512,-53.054,-14.167,-44.06,60.996,-51.697,29.727,-0.033,-23.42,2.748,1.131,11.606
180.3371,28.537,-61.055,-8.937,-12.562,32.107,-52.298,14.679,28.457,-8.825,-11.891,4.286,14.957
180.55837,26.377,-54.031,-40.34,-33.543,18.873,-42.431,-11.798,-9.401,1.691,0.811,-10.164,7.538
181.27379,25.369,-106.348,-51.67,-44.805,-19.623,-45.531,-18.056,-2.849,-11.249,2.528,-0.065,-2.189
181.48512,27.735,-11.109,-37.039,-83.314,4.35,-35.173,-12.19,23.37,3.901,-10.228,12.787,7.577
181.63143,28.757,-5.068,-35.589,-16.679,13.966,-29.866,5.765,-33.26,-0.178,-11.787,-17.588,21.845
181.83964,27.23,-56.804,-46.965,-2.653,24.18,-26.722,-2.493,-2.782,-24.006,-12.139,-22.929,-8.582
182.91687,22.983,-71.695,-23.667,-45.082,-10.197,-35.307,5.272,11.046,-4.432,4.105,-2.42,14.539
183.23528,22.031,-52.16,-15.017,-24.828,-10.216,-33.204,9.032,3.182,-10.168,10.789,-12.629,0.988
183.50834,21.497,-50.991,-8.444,-30.823,-1.31,-36.682,24.818,-1.978,-3.717,-0.324,2.762,16.123
183.70862,21.964,-56.918,-21.408,-25.162,-7.705,-41.409,29.643,17.533,-0.543,4.71,1.24,0.716
183.82349,22.177,-59.663,-4.695,-5.109,19.825,-35.19,23.016,18.614,10.256,3.162,-4.567,14.142
184.06512,21.791,-54.123,-1.854,-12.128,44.36,-51.678,20.877,21.217,-8.148,1.763,2.959,16.589
184.16231,25.612,-47.963,-35.17,-80.121,9.774,-26.411,-12.092,-2.915,-10.022,5.289,12.534,13.113
184.34798,30.698,-5.017,-5.171,-32.766,28.672,-24.992,13.233,-27.071,-16.474,-2.46,7.372,10.953
184.49043,31.06,-26.425,10.468,15.996,61.555,-29.309,15.509,17.017,-8.629,-1.695,-28.182,17.024
184.84141,26.785,-56.352,-45.105,-60.243,35.62,-29.567,0.556,-5.942,-3.987,5.055,-2.319,21.66
184.97102,28.499,-34.139,-21.521,-46.925,31.967,-35.761,-8.393,17.253,5.064,-4.27,-6.015,12.111
185.14444,28.676,-12.023,-26.837,-28.711,9.126,-38.209,-22.901,4.66,-6.685,-7.265,5.604,-6.914
185.32295,27.784,-26.639,-32.545,-23.947,12.616,-45.15,-13.689,4.019,-15.606,0.579,-4.462,0.253
185.67673,24.084,-46.158,-27.962,-14.2,34.029,-42.356,5.041,7.841,-16.129,-1.548,-6.283,10.612
186.01134,22.021,-66.431,-25.767,-28.785,24.348,-39.809,-7.238,7.777,9.973,9.468,6.655,0.071
186.10671,21.545,-48.244,-11.075,-15.933,30.77,-35.167,10.717,0.377,6.828,-5.019,-3.709,20.036
186.33392,20.495,-54.785,-19.541,-20.06,9.349,-39.568,11.074,0.824,-2.813,2.055,-0.723,7.399
186.54295,21.053,-47.048,-46.629,-36.764,7.324,-38.086,35.539,-2.366,-0.929,7.294,-3.602,14.257
186.66213,21.407,-71.983,-19.791,-37.738,4.388,-39.456,31.796,13.293,3.543,15.936,-9.767,0.877
186.91692,21.876,-60.684,-24.035,-20.762,8.739,-54.845,42.716,20.92,13.057,-6.015,-7.074,15.389
187.15134,21.818,-62.607,-11.526,-23.609,6.245,-59.374,30.979,17.621,12.505,3.917,0.145,-2.664
187.32254,24.438,-89.543,-44.06,-70.595,2.634,-23.783,-15.259,11.063,-4.319,-9.681,9.715,11.4
187.59587,31.045,7.842,-5.35,-44.953,33.591,-26.634,4.956,-8.479,27.152,12.418,-9.401,39.223
187.81946,31.96,-36.881,-20.398,-32.062,70.607,-47.076,9.246,6.204,6.545,4.627,-0.035,33.942
188.08145,32.011,-21.687,-26.957,-55.641,61.472,-45.7,-26.215,1.9,23.11,-0.565,15.291,33.21
188.28317,34.161,-14.432,-13.79,-54.573,57.819,-41.797,-24.864,-2.048,31.709,3.97,14.619,38.806
188.41274,35.887,-14.538,12.012,-47.956,43.734,-39.13,-12.868,1.03,15.249,6.491,-0.505,39.62
188.54095,37.731,10.408,16.93,-27.589,37.932,-33.98,10.806,-8.346,19.342,-0.657,-1.701,38.834
188.76707,37.946,28.894,-32.573,29.153,35.227,-36.572,5.354,-18.177,24.991,-1.866,-9.527,43.248
189.54694,33.084,1.069,-12.226,-40.783,-11.402,-1.513,-45.38,-0.697,-6.717,-6.991,-4.945,-7.617
189.72844,34.191,44.523,-2.354,-49.684,-6.591,-1.395,-70.516,7.443,9.19,-16.776,4.523,2.343
189.84073,35.503,76.432,2.668,-50.652,-15.705,-17.686,-85.57,-5.401,8.868,0.469,3.705,-9.456
190.18367,36.068,89.501,-0.739,-40.344,-26.368,-19.594,-93.274,-4.476,-3.325,7.929,0.16,-11.283
190.41011,35.454,82.748,-1.956,-33.169,-21.245,-14.855,-92.622,-16.552,8.237,-4.635,-5.008,-13.293
191.14154,30.313,-4.96,-6.748,-13.838,-8.316,-30.203,-47.075,3.454,8.762,-11.117,-4.087,-1.661
191.85964,32.31,-15.93,11.666,-31.097,38.611,26.803,16.464,17.107,-12.063,3.015,-37.341,2.048
192.11156,32.854,13.025,-34.525,-32.071,12.785,7.326,-39.97,-12.402,13.836,-5.502,-1.245,1.786
192.44168,34.703,9.303,-25.577,-57.896,34.496,-22.184,-12.936,-11.664,19.417,-9.619,15.773,31.261
192.60431,34.75,-23.638,-29.887,42.882,27.835,-28.961,-16.671,-26.825,12.463,-3.111,-13.574,37.698
193.74571,30.724,-32.516,-6.786,-29.112,38.243,-22.5,-44.295,-26.644,11.165,-4.89,-4.718,31.106
194.20086,32.287,-60.292,45.268,-56.655,49.721,-7.985,-11.625,-4.619,7.386,-8.734,6.645,15.258
194.34503,35.362,-38.198,63.049,-11.721,58.62,-39.78,3.703,14.186,12.644,-7.297,-2.796,15.459
194.49633,37.036,-24.279,91.544,0.366,57.782,-31.226,16.928,2.45,7.426,-0.954,1.974,7.799
194.87923,37.802,-13.705,87.297,11.265,63.856,-38.952,17.757,3.689,6.245,8.007,7.892,5.534
195.13483,37.616,-26.94,65.563,33.39,55.84,-31.314,22.953,-0.775,7.898,-2.365,-28.593,6.469
196.49465,31.031,-49.546,-10.449,-1.302,36.642,-39.198,22.516,3.056,7.282,-14.629,-11.337,12.33
196.92385,28.022,-104.134,-10.485,-11.363,-3.086,-43.252,6.56,16.979,6.335,11.328,-8.829,1.609
197.04472,26.853,-93.391,16.19,-30.122,6.532,-34.774,26.149,5.61,7.053,-0.586,-0.924,6.288
197.28118,27.891,-90.747,31.036,3.143,12.987,-43.389,39.266,19.049,8.251,8.944,1.791,22.636
197.59138,30.493,-90.145,-6.545,-48.088,30.991,-22.971,0.433,-13.004,5.945,-6.376,13.061,28.465
197.68776,34.881,-57.874,25.612,7.349,48.102,-25.421,-6.122,-3.529,-4.822,-7.718,8.787,-15.877
198.02091,32.104,-72.329,3.594,6.857,65.895,-44.741,-5.76,14.948,-11.326,-3.909,-14.914,12.8
198.7995,28.831,-85.83,-38.408,-32.938,37.333,-33.926,-10.241,-1.048,-23.855,-13.979,-9.216,12.45
199.24345,27.23,-116.584,-38.666,-38.343,21.932,-51.367,-4.272,23.201,-12.824,-19.694,13.371,19.881
199.55937,27.451,-102.665,-19.888,-55.415,9.228,-36.949,6.026,5.643,-9.059,-0.791,8.089,24.657
199.9141,28.309,-102.732,-47.895,-49.31,-1.97,-39.024,-6.197,-4.581,-19.84,-2.919,-5.042,5.652
200.36376,27.155,-99.117,-6.955,-18.029,-7.016,-35.1,5.528,3.776,-3.437,-0.655,-1.893,22.22
200.48195,26.539,-92.746,-1.575,-34.58,-13.025,-30.444,-0.58,9.877,-6.416,-11.312,1.422,2.651
201.51156,24.534,-85.651,18.886,-14.451,6.833,-45.261,28.666,25.826,5.795,-9.635,9.448,18.312
201.68789,24.509,-72.108,16.126,-25.19,4.738,-54.931,26.111,9.389,4.769,5.08,-3.67,9.844
201.97161,25.588,-87.634,7.492,-15.443,2.602,-52.087,19.145,8.79,9.587,-7.042,4.329,4.879
202.2737,25.532,-97.339,16.624,-17.601,19.222,-28.201,15.952,22.522,4.971,17.478,2.697,-2.87
202.50095,27.306,-52.683,-12.748,-33.564,28.816,-29.735,17.102,10.244,-6.134,4.731,-3.057,11.555
202.63995,29.23,-50.605,2.872,-94.893,46.223,-25.241,7.845,6.501,0.149,-1.628,-6.89,-1.585
202.99546,31.832,-50.332,2.317,6.199,52.514,-48.052,16.969,-4.308,1.343,1.7,-18.071,2.21
203.43025,27.176,-81.077,-10.139,-23.266,59.839,-49.844,19.589,7.901,-3.362,1.515,-0.762,1.654
203.60984,25.909,-77.006,-33.078,-13.125,36.052,-33.559,2.342,14.232,-2.364,-9.454,-17.253,-1.385
204.69574,22.854,-78.562,-68.998,-36.432,-1.71,-53.515,8.423,-5.711,-3.723,12.065,-2.557,5.721
204.97964,25.335,-46.298,-29.567,3.548,-14.833,-45.466,5.258,-10.355,0.732,15.441,0.318,-8.731
205.50803,22.918,-66.425,-0.481,-38.181,28.758,-36.142,42.971,7.174,-3.89,14.544,-8.049,9.048
205.61188,26.632,-71.121,-24.518,-23.594,15.309,-24.311,1.796,8.243,-13.881,3.217,-4.407,8.123
205.76209,27.699,-36.913,-32.676,-34.216,28.022,-11.878,0.504,11.36,6.425,-16.141,0.769,2.285
206.02417,25.71,-76.813,-40.536,-57.952,39.299,-36.335,-3.487,-4.185,-14.264,-2.689,-10.583,13.615
206.19596,26.903,-73.295,-28.848,-32.778,22.743,-27.024,13.67,-0.904,-1.486,-6.702,6.002,22.25
206.45329,27.895,-88.858,-25.142,-23.557,24.939,-49.857,12.341,7.752,-6.096,-2.813,-2.228,24.836
206.87193,26.785,-104.913,-21.603,-17.125,10.753,-55.87,30.701,23.524,4.428,-3.76,2.945,7.726
207.08177,26.888,-112.629,-13.416,-37.604,-5.432,-31.892,30.422,16.211,5.211,6.65,3.755,26.194
207.2429,27.719,-115.291,-15.26,-9.413,3.087,-49.724,24.609,18.283,10.426,-4.158,-0.106,29.514
207.32853,27.858,-84.942,0.717,-17.88,-1.388,-34.699,34.152,16.347,8.974,-3.006,-1.035,8.709
207.54612,26.296,-82.006,8.808,-17.732,9.67,-39.393,21.85,18.948,10.582,1.591,-5.449,2.992
207.94671,25.891,-109.545,9.302,-1.582,22.082,-49.794,22.167,21.343,10.675,-4.87,-3.885,6.177
208.08662,25.862,-93.338,12.978,-22.376,7.901,-47.891,52.911,0.512,3.345,11.682,-5.119,19.443
208.42889,25.093,-87.394,18.508,-19.495,2.786,-41.233,29.591,23.093,3.112,-0.5,2.66,7.43
208.91533,27.032,-32.901,12.477,-89.862,17.015,-31.564,-2.637,49.866,6.469,-17.425,-3.616,-0.062
209.33764,28.424,-61.793,-52.111,-35.913,33.749,-52.798,1.648,-6.497,-9.767,-7.709,-2.189,15.101
209.54095,28.426,-103.151,-50.675,-44.443,14.136,-54.297,-7.036,14.918,-16.921,-5.343,6.571,13.817
209.72898,28.65,-96.531,-64.56,-39.075,11.7,-37.383,-17.714,-0.72,-19.57,-1.31,-3.591,5.481
209.99587,29.012,-58.097,-48.979,-33.87,38.865,-31.603,-6.172,-23.66,-34.401,3.594,-15.606,16.399
210.25664,28.247,-82.959,-54.104,-53.376,45.7,-43.639,-15.984,-3.703,-16.758,-2.878,-2.668,19.908
210.72063,28.365,-72.666,-46.599,-48.767,74.288,-62.062,-12.888,2.783,-32.65,-11.801,0.131,11.733
210.78358,29.453,-78.234,-45.272,-56.434,69.714,-40.185,-10.736,-7.712,-30.099,-11.607,4.594,16.862
211.13175,28.83,-92.275,-21.315,-12.443,57.854,-37.885,-2.878,9.469,-34.533,-12.394,0.183,23.533
211.91129,24.833,-47.044,-11.315,-27.475,38.953,-35.677,-21.169,-2.628,-1.367,-19.79,-4.509,13.605
212.24259,25.202,-112.921,-21.972,-65.982,19.397,-35.869,-20.267,-11.659,-20.716,13.026,-0.644,13.289
212.39279,31.857,-86.821,-5.48,-114.141,45.306,-30.274,-2.256,22.539,-27.218,-15.736,16.755,9.419
212.75234,36.85,-4.918,24.045,-28.601,24.909,-30.568,-7.297,11.451,-34.094,-15.988,8.065,30.127
212.89197,35.772,-10.308,-10.768,31.225,33.565,-32.73,-11.85,2.203,-33.059,-12.718,-24.846,37.46
213.53955,30.397,-52.859,-23.907,-53.549,10.184,-37.748,-4.547,5.777,-22.028,-0.05,6.498,25.082
213.74667,32.269,-33.022,-35.423,-41.891,14.719,-41.02,-6.964,-2.32,-9.009,0.848,-0.692,35.265
213.84426,33.204,-23.473,-36.09,-50.425,20.631,-44.34,-2.238,4.848,-16.354,-8.093,3.024,27.744
214.26803,32.643,4.25,-9.806,-11.219,17.821,-37.256,-2.784,4.471,-4.743,-1.583,-2.031,34.943
214.61673,29.132,-58.477,-45.996,-16.352,11.799,-32.713,-7.273,-21.569,-6.684,5.978,-8.162,28.671
215.78844,26.413,-65.956,-34.294,-62.651,26.863,-43.345,0.202,-2.549,-24.461,-5.01,0.424,6.777
215.9054,27.913,-58.079,-27.311,-41.096,29.534,-45.399,0.897,10.866,-12.821,-15.379,3.204,6.793
216.03401,29.001,-39.279,2.207,-39.159,14.645,-33.175,-6.05,1.995,-3.64,8.433,1.437,15.397
216.1771,30.027,-45.96,-16.105,-41.888,8.66,-30.221,-19.751,-0.126,-4.462,-1.483,-0.345,3.455
216.42095,29.234,-52.147,-25.825,-35.786,1.769,-32.02,-23.173,4.314,-6.151,-7.394,1.506,1.568
216.61782,28.551,-63.981,-14.487,-8.501,24.318,-40.484,0.221,5.174,-15.263,0.91,-3.701,14.083
217.14717,25.204,-53.404,-4.734,-10.694,27.89,-42.131,16.958,14.317,-17.805,0.914,-9.352,7.406
217.4707,25.729,-41.851,-3.017,-31.999,33.386,-32.479,37.674,8.702,14.226,-25.925,-5.916,25.511
217.94676,23.734,-87.013,-6.863,-31.52,22.052,-36.772,27.558,4.238,-2.512,2.52,5.004,16.622
218.4946,24.019,-90.384,-20.913,-27.251,-11.977,-57.936,4.915,-0.84,-4.618,-6.376,-0.769,-2.114
218.57596,24.645,-101.221,-29.24,-47.452,-14.255,-39.17,4.198,6.043,-8.303,-4.805,3.819,5.005
219.42163,25.061,-91.689,-29.416,-35.646,-10.733,-38.327,-10.045,8.151,-9.792,0.54,-2.711,-1.072
220.32195,22.508,-81.832,-25.469,-50.55,-1.989,-39.54,-1.773,12.491,-0.989,-7.446,8.23,-11.523
221.04336,22.33,-62.253,-21.694,-36.994,-11.346,-26.257,-5.215,-0.4,-0.379,2.209,-11.004,-4.765
221.27052,21.524,-51.786,-26.856,-32.75,-6.874,-43.577,-1.174,10.194,-4.001,6.175,-2.953,-7.406
221.79243,22.47,7.697,-50.597,-46.936,25.582,-19.318,7.757,-26.251,0.194,-13.631,-11.018,-10.435
221.91896,23.719,-91.162,-51.496,-57.04,-6.569,-30.897,-23.22,-8.565,-5.52,6.903,2.077,9.775
222.09079,26.729,-49.24,-39.656,-61.353,54.39,-43.404,26.941,7.149,-15.351,-9.963,12.586,7.642
222.34218,29.17,-59.852,-23.727,-45.817,54.967,-47.847,33.924,10.123,-28.691,-2.84,-1.613,16.182
222.4512,30.613,-59.145,-32.565,-41.96,45.37,-54.136,22.22,2.568,-25.67,-0.777,1.239,23.365
222.53397,29.7,-59.136,-46.4,4.488,25.311,-42.389,7.804,7.374,-21.044,-17.602,-12.811,26.616
222.99283,25.503,-73.523,-58.969,-33.719,33.382,-29.761,8.802,-20.877,-15.238,9.029,-21.809,26.237
223.1337,25.134,-87.188,-57.404,-59.559,15.229,-22.62,-12.658,32.384,-24.567,-3.528,3.051,0.509
223.302,24.466,-82.727,-75.344,-40.303,5.974,-38.115,-29.609,13.073,-13.106,-3.426,-3.526,-4.869
224.57973,21.219,-67.944,-54.441,-36.318,-21.05,-41.832,-11.503,9.122,-6.449,-2.043,-3.857,-19.564
225.11175,19.186,-37.907,-40.944,-23.685,-0.092,-55.445,6.484,-7.228,-16.989,-0.129,-6.196,2.668
225.19932,19.511,-67.273,-29.854,-60.628,1.975,-36.65,-2.145,6.538,-11.513,2.341,2.144,-3.805
225.60562,21.599,-77.963,-26.139,-45.665,-6.746,-42.984,4.519,10.956,-2.417,5.197,-0.873,-8.617
226.13646,22.705,-64.457,-28.385,-48.056,-25.924,-38.396,13.626,1.957,-0.26,3.727,-5.253,-8.568
226.2741,23.4,-70.236,-20.729,-33.826,-22.631,-40.376,25.267,9.416,12.914,13.519,-15.393,-10.128
226.58553,23.726,-71.654,-31.347,-44.34,-44.753,-34.389,17.375,6.65,-0.087,3.403,-3.461,-3.018
227.02712,27.492,-62.801,-49.011,-69.478,21.371,-20.218,13.746,-63.942,-21.395,17.413,-6.405,3.237
227.19615,30.77,-113.949,-39.345,-59.715,37.658,-38.763,-57.152,2.79,24.008,-1.861,6.521,10.512
227.28113,33.069,-39.066,-22.913,-68.715,56.899,-32.369,-35.576,3.707,24.737,-3.495,9.687,39.081
227.45646,35.534,-12.485,22.722,-52.117,59.774,-32.662,2.934,5.371,22.625,-3.832,20.019,46.294
227.59714,38.029,2.523,22.336,-19.72,66.106,-38.391,6.258,-0.34,15.757,8.191,-3.69,56.617
227.81066,38.544,32.549,25.675,-18.656,69.735,-33.997,12.234,1.412,35.254,4.858,7.504,43.448
227.98463,39.775,76.475,24.633,-16.275,73.83,-32.353,-13.486,6.611,36.452,9.082,1.46,58.033
228.69937,39.457,75.297,23.052,-15.75,68.655,-31.48,-0.968,-26.728,28.89,9.567,-5.053,62.204
229.13927,36.365,-4.262,-19.023,-17.704,52.331,-33.047,-17.391,-7.047,11.539,6.477,-9.003,54.823
229.71401,34.472,-23.117,2.582,-83.177,-10.175,-25.634,-22.612,22.27,5.349,-11.283,4.522,4.191
229.90059,38.344,50.825,4.475,-57.204,-38.936,-23.341,-61.677,-0.662,-6.232,-0.499,4.648,-15.555
230.38789,39.082,77.033,12.447,-36.008,-47.241,-17.822,-76.006,-5.954,-10.145,-3.401,6.217,-21.957
230.66698,38.467,59.872,-13.496,0.858,-55.044,-18.497,-54.803,-36.286,-10.236,4.747,-22.463,-16.68
231.35224,36.383,28.331,-14.319,-29.2,-27.656,-29.699,-47.486,-6.429,13.674,7.849,-22.011,-15.208
232.89515,29.713,-51.688,0.001,-12.029,-16.131,-42.59,-9.383,0.202,5.599,9.381,-6.356,-10.921
233.20454,27.307,-48.097,-0.489,-8.023,-19.991,-39.92,-15.084,-15.594,-9.729,-3.06,-10.372,11.945
233.59342,25.843,-89.292,8.566,-28.153,-5.726,-28.329,-6.397,4.903,-5.653,-4.783,-3.145,0.972
234.16268,25.826,-78.355,6.607,-28.374,-7.367,-37.34,12.497,-9.893,-8.98,-6.06,-0.072,-12.895
234.3419,31.054,-56.345,29.86,-46.898,2.633,-5.257,13.126,8.991,-8.349,-4.068,-9.49,-5.306
234.56045,32.205,-45.292,-10.143,-23.585,-3.435,-15.288,-53.296,-21.103,-15.638,-11.943,6.966,-2.656
234.75297,33.442,-18.501,24.722,-26.011,12.254,-27.783,-18.757,4.311,-32.118,-27.805,15.093,-7.934
234.81905,34.863,-20.05,44.84,-28.676,31.318,-28.601,-4.116,-2.985,-25.421,-1.473,4.535,10.282
235.29347,35.987,-22.541,57.265,-0.906,36.446,-32.969,-3.3,-10.515,-14.31,-2.432,3.308,8.241
235.69873,34.063,-45.571,38.63,0.372,38.359,-30.537,-4.771,20.708,-16.733,-4.961,-2.205,18.983
235.94385,31.608,43.176,-4.66,-19.632,73.378,-42.365,5.196,5.979,-8.338,-19.962,3.299,6.344
236.19937,31.459,-42.759,21.455,-17.256,43.433,-33.679,-11.791,2.431,-9.712,1.147,-0.826,-1.842
236.38454,31.73,-53.76,14.435,-6.411,38.612,-22.083,-10.806,-1.418,-6.88,-2.649,-18.514,3.469
236.76816,28.163,-106.996,-18.905,-37.004,33.014,-34.64,-18.077,10.803,-6.496,-4.339,1.263,3.328
236.94231,27.301,-85.329,-24.492,-38.95,32.86,-48.182,-8.183,-4.863,-17.038,4.405,-8.724,3.244
237.23741,26.533,-93.914,-20.104,-44.054,29.604,-38.618,-11.083,14.442,-18.508,-8.852,6.35,-4.426
237.62889,26.999,-118.41,-33.483,-24.986,43.034,-42.65,2.393,7.754,-33.234,-9.622,-6.011,21.536
237.93587,24.519,-85.186,-20.83,-29.544,50.229,-49.922,18.496,7.855,-24.711,-8.398,-0.062,21.236
238.61492,21.592,-72.748,-1.897,-25.17,24.348,-34.236,14.573,18.696,-8.231,2.754,-3.535,17.625
238.87052,22.93,-67.146,-0.841,-27.343,47.141,-42.738,22.772,16.689,5.687,-21.92,9.836,41.758
239.00272,23.096,-75.501,-14.57,-18.786,36.397,-49.916,15.09,0.122,-4.271,3.533,-0.365,50.443
239.10952,23.101,-75.761,-4.214,6.146,41.708,-50.561,25.353,4.643,-2.81,-10.798,3.861,24.348
239.39646,22.369,-87.313,8.163,3.288,42.769,-36.9,29.626,24.507,-5.717,-4.316,11.744,19.052
239.90299,20.628,-71.576,21.487,-21.275,60.107,-44.91,33.048,3.297,10.042,1.794,-9.741,2.245
240.12857,20.806,-98.995,-10.205,-37.36,53.852,-40.25,-20.145,1.601,-7.972,7.966,5.955,-5.971
240.22939,24.778,6.009,-11.439,-65.941,49.229,-17.823,-0.259,-7.141,24.473,-25.272,0.341,6.402
240.76821,25.8,-27.628,-20.376,-38.497,26.447,-32.223,-9.998,1.428,-8.668,-8.299,-12.167,-0.31
241.52213,21.874,-57.586,-14.71,-27.365,45.869,-47.187,7.907,-3.375,-23.115,-1.692,-9.518,9.411
241.75429,21.471,-33.195,-39.229,-25.881,46.147,-52.454,15.4,-28.439,-11.697,2.21,-10.957,26.386
242.10159,18.861,-113.665,-59.355,-50.426,40.15,-50.371,2.623,6.598,-20.33,-8.904,-0.944,11.197
243.73796,18.052,-94.986,-24.611,-36.913,37.972,-49.921,21.489,12.308,-20.835,-2.065,-1.494,4.187
244.43655,16.301,-78.901,-22.713,-37.535,45.509,-46.154,22.4,8.951,-23.926,-6.972,-3.601,-0.149
245.7888,14.822,-54.17,-9.556,-41.128,52.184,-38.066,22.118,10.356,-29.902,3.677,-3.667,6.178
246.13714,14.935,-47.263,9.959,-11.638,59.993,-51.568,40.135,21.587,-27.555,0.903,-7.587,11.189
246.5259,13.841,-45.516,-14.04,-31.554,54.627,-49.551,30.283,11.63,-30.619,-1.285,-2.891,14.499
247.39732,13.586,-40.546,-21.319,-23.497,43.47,-61.147,57.225,27.851,-23.15,-6.976,-3.864,3.857
248.0712,12.482,-29.775,12.91,-20.503,81.389,-49.308,60.553,22.856,-29.844,0.957,-11.493,13.421
248.55111,12.484,-34.028,-0.709,-11.682,76.724,-55.699,59.968,27.245,-30.823,-4.249,-1.448,10.141
248.81347,12.295,-27.561,15.659,-18.29,84.669,-63.351,69.354,11.96,-18.601,2.23,-9.182,-0.861
248.94113,13.474,-40.423,-1.819,-4.728,59.002,-63.905,82.053,33.308,-27.275,-5.706,-9.024,10.086
249.18499,12.711,-29.798,-1.704,-8.898,59.466,-63.258,86.562,29.676,-27.139,-5.343,-4.603,10.409
249.47138,11.888,-19.754,14.68,-10.658,78.119,-66.211,69.594,21.397,-29.861,-8.107,1.82,11.972
249.88694,10.512,-6.915,-4.794,-15.563,79.178,-60.832,72.446,30.863,-17.027,0.178,-16.124,6.426
250.34653,8.387,22.62,-9.05,-13.505,83.69,-57.187,50.592,31.67,-20.169,-5.33,-6.017,24.259
251.49592,4.734,89.761,-8.647,30.173,74.706,-65.203,30.547,71.607,-12.112,-11.332,-2.402,9.497
