start,0,1,2,3,4,5,6,7,8,9,10,11
0.0,3.449,96.922,-92.217,-65.469,5.519,-48.709,14.866,9.337,-31.09,7.382,-5.572,1.911
0.28132,8.421,-9.112,-157.43,-65.44,22.983,-28.348,-11.84,47.072,-13.042,35.423,-5.974,-12.623
1.46626,7.713,4.893,-152.739,-63.516,19.836,-30.873,-9.877,45.722,-14.175,31.396,-5.707,-13.103
2.68476,7.624,6.549,-151.678,-66.116,19.433,-28.907,-8.827,42.221,-15.855,34.199,-5.011,-12.373
3.91492,8.178,-4.483,-156.352,-59.224,22.949,-32.693,-11.868,51.629,-10.873,30.255,-2.225,-13.945
5.17061,8.013,-1.99,-152.646,-76.696,21.022,-27.383,-6.885,30.778,-15.748,36.817,-8.968,-12.04
6.14063,6.12,47.857,-102.557,-68.359,12.1,-48.803,17.162,13.314,-29.642,2.318,-8.858,-2.629
6.37488,8.169,15.756,-106.663,-95.047,9.481,-43.618,14.307,-8.331,-30.417,15.829,-18.068,0.14
7.08354,8.295,27.834,-104.742,-64.704,-6.652,-52.762,1.504,18.038,-28.248,-0.837,-6.705,-8.965
7.27723,8.38,20.833,-102.346,-77.901,1.037,-59.885,9.239,9.745,-24.633,-7.937,-6.11,-6.936
7.7722,10.811,-34.821,-133.796,-93.186,12.116,-22.229,3.67,8.484,-27.671,36.244,-13.311,-17.716
8.01211,10.659,-27.538,-135.287,-72.717,2.459,-54.777,-1.68,16.68,-21.316,0.285,-9.202,-14.508
8.2058,9.448,2.454,-118.758,-69.655,0.557,-51.74,-1.372,19.839,-19.219,1.988,-12.092,-12.287
8.3995,8.964,17.556,-101.851,-61.569,-3.894,-56.672,8.943,18.595,-30.326,-7.268,-4.743,-6.183
9.09361,10.275,-12.645,-116.441,-93.074,6.959,-33.598,7.807,0.612,-20.852,30.433,-13.413,-5.932
9.56526,10.436,4.548,-114.01,-44.216,-7.865,-43.024,0.105,32.688,-18.309,7.662,-4.696,-6.216
9.72816,8.855,29.258,-97.937,-65.946,-6.593,-50.444,3.417,13.125,-17.115,-2.272,-7.949,-8.327
10.3751,9.605,3.389,-114.52,-62.526,7.524,-37.239,2.719,25.892,-15.762,27.537,-5.466,-8.262
11.60762,11.323,-29.557,-132.088,-72.935,1.533,-29.176,-2.965,18.058,-21.208,28.417,-7.738,-15.119
12.06816,9.938,2.467,-108.256,-67.234,-4.977,-49.894,1.602,19.784,-23.047,2.941,-5.775,-14.628
12.24354,8.56,28.239,-102.444,-55.824,-6.803,-46.803,-0.146,24.568,-22.677,-0.912,-8.32,-12.623
12.78154,7.202,66.307,-60.709,-54.96,2.289,-39.223,14.809,7.792,-21.093,6.441,-12.319,1.306
12.90644,10.724,-16.14,-124.606,-90.685,3.958,-24.991,-3.843,-7.058,-12.682,47.043,-18.969,-9.551
13.15061,11.432,-23.583,-126.591,-64.971,-5.899,-58.356,-8.058,19.305,-11.63,-6.398,-8.71,-12.596
13.49361,9.399,26.49,-102.134,-56.072,-13.858,-48.704,-2.606,19.214,-15.626,-0.154,-3.75,-6.539
14.21741,10.712,-29.805,-139.236,-85.811,12.723,-32.146,-2.995,16.526,-12.602,35.638,-9.535,-8.29
14.64299,9.319,10.827,-122.795,-75.082,-2.738,-45.052,-10.376,11.965,-3.871,7.415,-14.864,-5.727
14.79991,8.408,34.433,-101.031,-62.892,-6.271,-46.712,2.27,10.838,-14.782,8.221,-8.466,-4.072
15.34005,8.354,42.157,-71.045,-57.476,-2.537,-53.431,13.423,11.513,-23.922,-2.924,-9.939,-7.141
15.52662,10.584,-13.851,-120.128,-84.126,2.604,-21.488,0.239,-4.59,-20.961,34.112,-22.442,-10.106
15.97243,10.033,-12.773,-120.606,-77.344,5.672,-54.81,5.202,12.447,-19.539,-3.072,-8.089,-4.256
16.12399,10.341,-17.298,-129.131,-69.511,7.283,-58.961,-4.158,12.047,-9.275,-1.244,-3.903,-3.65
16.43714,10.61,-21.778,-118.8,-68.964,17.637,-42.56,-18.032,14.783,-17.399,10.865,-6.951,-7.579
16.80912,10.554,-20.118,-131.654,-54.659,6.915,-42.585,-1.367,43.074,-18.64,18.215,5.062,-13.807
18.20109,11.518,-36.252,-136.82,-89.443,8.881,-27.132,-2.149,15.748,-11.357,33.612,-6.793,-10.914
18.55805,11.104,-17.749,-127.89,-71.073,-5.748,-45.817,-12.009,6.507,-13.624,3.628,-16.749,-14.073
18.82726,10.317,-8.082,-120.751,-85.943,0.876,-48.428,-18.336,4.224,-10.526,7.443,-9.534,-14.311
19.0546,11.254,-14.185,-116.417,-69.143,8.539,-56.793,-30.741,1.754,2.104,-0.686,-2.777,-5.786
19.17633,11.769,-24.985,-117.477,-63.17,16.524,-46.662,-35.741,14.727,2.042,1.099,-7.067,-6.173
19.60735,12.349,-43.369,-139.817,-58.536,-0.772,-49.845,-13.718,37.72,-6.687,10.006,7.466,-20.24
20.83365,13.133,-56.092,-135.165,-79.998,0.117,-28.111,-11.089,16.798,-12.362,31.26,-11.77,-22.729
21.00694,11.725,-29.716,-134.25,-82.401,-7.688,-49.948,-20.422,7.439,-2.324,1.945,-12.966,-24.882
21.33084,12.901,-41.941,-115.823,-74.116,-3.004,-42.218,-23.746,9.657,-14.974,9.324,-2.948,-23.193
21.71011,12.929,-40.93,-112.797,-63.6,4.746,-52.751,-32.381,13.743,-7.799,-2.678,-3.727,-13.385
22.12912,13.495,-58.053,-127.65,-68.089,-0.966,-40.739,-16.081,25.961,-15.84,11.535,-4.601,-21.965
22.56027,11.024,-4.835,-107.455,-62.526,-9.152,-50.429,-2.855,11.894,-14.762,-8.682,-7.619,-10.719
23.05025,10.048,-1.122,-104.323,-72.759,-1.823,-59.448,-2.2,8.362,-19.242,-10.574,-4.765,-8.829
23.41964,12.583,-44.617,-128.514,-66.801,-0.745,-35.142,-2.383,21.002,-17.513,23.168,0.083,-15.451
23.96454,12.042,-45.382,-128.378,-87.836,8.325,-47.728,-12.039,5.382,-11.416,10.072,-7.363,-14.016
24.3283,12.414,-33.819,-120.168,-53.187,8.37,-48.793,-30.677,18.812,-8.756,3.862,-4.354,-9.994
24.5146,11.385,-21.665,-108.261,-85.11,2.625,-38.136,-7.024,1.728,-18.579,10.152,-9.541,-10.224
24.75202,13.8,-65.311,-144.801,-70.077,0.951,-47.214,-13.477,30.301,2.141,13.918,1.903,-17.544
25.04794,11.619,-19.706,-120.919,-77.132,-7.437,-46.526,-7.074,16.017,-13.913,8.437,-8.468,-9.288
25.39342,10.479,12.263,-102.761,-64.725,-13.049,-41.338,-6.513,11.929,-14.251,7.058,-10.176,-6.792
25.88567,10.432,1.847,-114.788,-78.209,1.046,-49.102,-3.37,1.401,-5.776,10.341,-7.526,4.546
26.06054,13.378,-72.884,-153.122,-69.663,16.183,-40.117,-8.495,32.683,-0.036,24.809,1.571,-9.842
26.61179,12.586,-59.256,-131.374,-77.461,15.214,-60.304,-9.093,11.801,-13.468,-3.919,-6.099,-9.358
26.71238,13.092,-59.852,-110.656,-73.519,22.62,-51.22,-19.528,10.958,-18.642,2.41,-3.662,-7.342
26.97859,12.722,-43.95,-113.011,-76.956,12.679,-48.159,-18.675,3.921,-11.456,3.465,-9.758,-5.671
27.36308,12.414,-41.763,-131.002,-62.945,4.042,-34.145,-10.593,34.568,-7.26,13.026,-12.187,-9.371
28.35084,9.234,24.166,-85.502,-61.728,-2.8,-49.061,5.05,12.98,-26.232,-2.872,1.157,-0.983
28.73388,12.804,-56.766,-143.546,-67.868,4.01,-49.011,-7.455,25.882,-7.398,10.273,-2.075,-15.965
29.19279,11.747,-40.861,-127.792,-82.825,4.621,-53.844,-7.212,-1.719,-18.746,3.444,-7.948,-15.062
29.28454,12.495,-61.207,-131.584,-78.949,18.032,-58.256,-14.57,12.652,-11.809,-3.445,-2.265,-16.732
29.80109,11.995,-33.906,-109.567,-78.128,15.054,-44.651,-19.824,9.015,-17.8,-0.613,-4.258,-3.303
30.00027,13.286,-48.74,-125.112,-82.978,2.363,-34.861,-8.82,4.325,-9.089,20.1,-17.521,-5.85
30.25832,12.695,-50.433,-127.442,-69.153,-1.465,-48.218,-2.144,19.68,-23.591,-0.146,-12.493,-17.706
30.45184,11.643,-29.289,-121.416,-79.823,-2.595,-54.83,-4.654,22.026,-13.882,-6.443,-7.141,-14.876
31.34286,14.025,-61.895,-128.533,-89.572,-1.053,-37.69,-9.279,7.543,-8.764,21.334,-7.989,-15.082
31.86363,20.209,3.888,-58.836,-105.311,5.831,86.622,1.494,48.967,-6.784,-32.326,-117.93,7.989
33.85596,12.719,-61.965,-134.494,-67.539,10.208,-50.03,7.336,27.564,-20.326,12.614,-1.354,-13.19
34.18145,11.762,-40.312,-116.962,-81.924,6.219,-47.753,5.527,2.345,-23.549,6.304,-7.627,-12.889
34.48272,11.657,-49.749,-111.161,-88.461,29.496,-48.399,-5.818,0.556,-26.002,3.511,-6.88,-3.467
35.04757,11.219,-29.495,-96.345,-58.425,26.544,-51.935,-16.65,18.088,-24.558,-5.323,-1.748,-1.57
35.14209,12.014,-40.476,-126.377,-66.498,2.85,-38.001,-3.47,26.111,-21.647,14.352,-5.062,-18.483
36.03075,9.265,14.614,-84.203,-67.257,3.238,-50.72,18.879,2.998,-27.478,0.512,-7.749,-5.308
36.12844,10.108,0.147,-86.074,-48.529,8.025,-56.635,21.671,17.609,-26.767,-4.566,0.141,4.832
36.35329,11.496,-46.595,-128.278,-97.569,14.488,-36.254,7.02,-4.323,-24.386,20.474,-12.413,-13.245
36.6659,12.296,-57.065,-122.651,-84.483,18.195,-50.172,6.699,5.794,-24.494,2.641,-3.405,-4.325
37.12866,11.96,-52.542,-113.585,-69.962,26.826,-54.155,-3.964,17.563,-24.84,-4.151,1.577,-1.075
37.24653,12.055,-57.557,-128.993,-84.518,23.456,-52.244,-12.16,9.256,-14.892,5.094,-4.763,-11.947
37.52898,6.447,54.391,-86.113,22.83,32.187,-102.815,-29.374,84.598,7.842,-55.643,23.951,-26.815
37.58943,12.773,-60.048,-134.705,-63.675,7.634,-58.473,-7.955,28.414,-13.761,-5.677,-5.022,-17.988
38.39986,9.133,13.062,-90.237,-69.855,3.052,-41.939,17.435,8.64,-33.767,7.709,-10.447,-0.738
38.58136,9.763,-3.858,-110.152,-63.042,7.341,-52.778,0.163,15.496,-17.403,-4.214,-1.272,-9.611
38.85048,12.552,-62.861,-143.585,-82.388,9.036,-42.176,-2.666,25.629,-17.231,16.204,0.1,-20.315
39.00989,11.746,-40.602,-126.223,-68.646,5.246,-57.66,7.407,13.362,-18.244,3.196,-9.002,-2.023
39.26472,10.995,-31.414,-119.764,-62.768,6.17,-59.802,10.24,20.72,-28.624,-15.085,-6.514,-7.769
39.40494,11.669,-57.182,-131.411,-80.949,27.998,-57.323,-13.759,9.629,-18.376,1.6,0.611,-17.625
39.57778,11.723,-48.589,-113.908,-76.888,25.889,-47.194,-7.058,10.003,-27.98,3.824,-7.571,-7.165
39.80952,11.593,-39.779,-108.877,-73.456,20.362,-52.077,-18.198,13.022,-22.295,-5.652,-0.575,-14.384
40.00113,13.075,-61.689,-135.918,-72.816,3.858,-44.847,-5.686,24.143,-17.086,15.35,-3.415,-22.477
40.39583,11.567,-39.35,-124.277,-70.448,7.915,-51.945,6.219,18.365,-22.114,8.387,-7.099,-11.737
40.57383,11.095,-22.872,-107.725,-67.385,4.223,-49.946,11.162,14.846,-23.294,3.689,-0.634,-8.35
41.12227,11.127,-26.383,-100.617,-72.926,11.099,-58.329,19.305,8.487,-27.315,-6.877,-7.625,11.158
41.19388,12.468,-58.578,-122.446,-84.931,13.624,-46.165,16.629,0.189,-27.81,13.704,-15.916,-3.867
41.58381,13.579,-70.73,-124.354,-89.901,8.59,-44.827,-10.675,-6.086,-17.504,10.79,-6.236,-22.227
41.69061,21.618,-24.75,-49.022,-103.737,18.043,82.959,8.628,66.597,-2.355,-37.422,-112.337,4.557
43.57873,12.562,-45.303,-124.745,-69.006,-0.135,-39.52,0.565,11.577,-18.245,17.481,-1.842,-16.012
44.07837,12.542,-60.982,-127.864,-83.032,17.752,-51.165,-8.016,10.619,-13.751,7.128,-0.779,-14.612
44.30966,12.839,-59.01,-122.187,-77.933,13.737,-53.343,-23.337,-0.377,-10.926,2.287,-9.592,-20.049
44.81932,13.01,-66.13,-146.443,-68.234,3.332,-62.67,-14.25,21.994,-1.999,-9.161,-8.529,-23.735
45.12975,10.994,-23.252,-119.739,-65.594,0.592,-58.523,-2.134,21.848,-13.54,-2.441,0.27,-15.818
45.81356,9.614,10.872,-73.191,-66.446,11.781,-42.693,13.506,-0.042,-24.638,3.685,-10.007,-5.232
45.90703,11.731,-34.059,-118.879,-80.931,1.93,-35.451,2.109,4.757,-20.249,17.277,-14.451,-11.051
46.41424,12.305,-54.493,-130.122,-85.639,12.695,-41.823,-15.723,6.205,-15.179,15.677,-9.071,-22.672
46.54721,13.934,-78.754,-119.849,-78.739,19.891,-46.862,-21.485,6.161,-18.301,6.323,0.28,-22.218
46.92735,13.039,-58.311,-108.455,-67.144,21.067,-43.871,-25.485,24.264,-19.148,5.181,-0.186,-20.821
47.07719,12.029,-29.128,-110.613,-68.648,-1.618,-48.107,-8.3,15.07,-18.98,7.811,-6.515,-10.476
47.92744,10.104,19.051,-84.525,-63.791,-6.134,-46.475,-1.69,12.3,-17.601,6.762,-1.978,-4.565
48.17161,10.652,15.727,-84.149,-68.133,-7.513,-40.442,8.063,3.944,-19.383,10.223,-8.865,10.321
48.28961,13.704,-55.168,-126.539,-66.66,-0.179,-41.543,-1.317,28.593,-7.075,16.589,-4.019,-4.421
48.44317,13.006,-28.117,-114.403,-62.425,-15.928,-45.876,-7.218,6.05,-7.733,-1.087,-11.457,-6.174
48.75333,12.837,-53.339,-117.417,-75.275,4.388,-47.217,-5.135,9.078,-24.046,0.06,-9.388,-17.228
48.89066,12.939,-67.209,-112.468,-85.157,28.174,-47.127,-24.389,0.887,-24.554,5.193,-5.629,-18.984
49.2171,13.621,-63.643,-106.391,-74.803,15.938,-46.82,-14.979,6.994,-19.732,1.394,1.101,-9.082
49.49946,14.139,-71.941,-132.434,-64.42,2.072,-54.0,0.789,25.418,-10.241,-3.188,-4.591,-7.36
49.93088,11.677,-32.5,-113.232,-64.11,3.3,-54.357,-9.999,16.31,-21.417,-6.559,-1.843,-18.317
50.65569,13.315,-2.291,-91.563,-62.33,-15.815,-18.612,5.389,-29.976,-20.983,4.852,-19.269,2.701
51.27515,32.405,133.287,-95.573,161.933,18.092,171.198,-9.322,-7.004,0.817,-49.075,-57.179,-2.273
53.22871,14.753,-20.9,-114.406,-78.86,-29.035,-51.705,-28.332,17.518,0.218,1.315,-4.02,-24.791
53.70331,14.727,15.034,-94.139,-58.053,-33.485,-34.961,-37.57,-2.751,-7.777,4.619,-9.181,-17.876
54.02444,13.935,-8.72,-97.191,-72.877,-3.41,-36.645,-43.81,-5.025,-5.736,10.036,-8.763,-11.276
54.47719,13.526,-10.474,-126.056,-58.49,-16.264,-56.948,-26.397,26.506,10.261,-13.637,-10.972,-9.228
55.51533,10.615,17.839,-109.42,-65.064,-15.411,-52.911,-11.641,2.47,-12.812,-3.939,-10.652,-3.068
55.65941,12.138,-48.766,-143.676,-78.688,8.919,-35.018,-7.006,21.463,-14.908,21.965,-11.964,-14.644
55.92576,11.311,-21.986,-128.425,-79.629,-2.532,-39.158,-8.412,15.131,-16.425,5.276,-12.801,-17.784
56.22816,12.202,-18.837,-110.933,-97.597,3.503,-45.342,-22.979,-2.952,-1.147,-2.389,-10.722,-8.071
56.54712,12.693,-9.987,-119.0,-79.632,7.607,-44.316,-36.883,8.709,14.891,5.119,5.376,-4.4
56.86195,13.774,-25.72,-132.455,-90.699,-9.299,-38.288,-21.524,30.491,14.278,7.909,7.419,-16.411
57.2649,13.756,36.336,-94.748,-55.783,-52.953,-29.5,-28.741,-0.822,-15.102,4.433,-12.877,-25.231
57.48766,13.574,51.735,-71.441,-58.134,-53.736,-29.394,-25.494,2.712,-16.444,-9.841,-4.646,-22.204
58.02866,16.232,2.959,-106.922,-59.636,-41.26,-24.835,-33.175,16.0,-3.441,21.888,4.909,-23.972
58.4654,14.024,49.195,-83.134,-52.101,-51.419,-33.906,-25.721,2.137,-16.049,4.853,-1.184,-15.37
58.67927,14.057,31.556,-84.513,-64.064,-46.203,-35.433,-35.014,-1.765,-15.487,3.265,-9.068,-23.126
58.90222,14.534,29.196,-78.266,-71.14,-47.06,-25.819,-41.676,11.764,-19.894,11.565,-2.896,-29.893
59.21701,15.489,15.241,-98.87,-27.463,-52.012,-38.967,-37.283,51.952,-10.663,12.352,10.682,-32.922
60.46186,8.241,55.173,-112.441,-21.189,-26.19,-33.884,-18.651,25.523,-38.285,24.678,-25.171,-18.918
61.65937,5.181,58.642,-117.524,-71.859,13.465,-26.674,6.334,20.268,-28.428,35.54,-14.707,-7.305
62.82272,6.253,35.778,-135.414,-67.688,14.885,-25.7,-0.697,33.919,-23.283,38.384,-7.144,-10.42
64.03333,7.72,5.256,-154.444,-58.461,18.75,-34.047,-9.151,50.921,-12.748,30.851,0.551,-13.237
65.26612,7.327,13.24,-147.661,-64.216,19.668,-25.287,-4.824,43.318,-17.17,40.288,-3.678,-12.084
66.50281,7.124,17.661,-146.018,-62.68,17.655,-30.241,-6.23,44.157,-17.197,32.45,-4.701,-11.606
67.76308,7.122,17.838,-146.106,-59.226,19.099,-27.004,-5.711,47.745,-17.555,38.713,0.799,-12.208
68.99619,7.653,6.737,-153.948,-57.948,18.46,-34.064,-8.987,52.025,-12.413,29.836,-0.165,-14.01
70.29093,8.453,-11.718,-156.331,-82.687,23.364,-25.475,-5.417,23.077,-14.605,45.245,-2.459,-13.59
70.95841,7.352,9.961,-136.488,-81.666,22.551,-59.11,-19.444,8.03,-10.502,-2.071,-8.342,-15.071
71.48472,7.133,15.397,-142.39,-81.919,16.818,-37.237,-9.867,17.969,-18.335,21.888,-15.965,-11.981
72.5688,4.438,74.833,-104.052,-64.673,10.081,-54.119,0.041,15.825,-26.577,-2.624,-5.865,-0.295
72.74862,7.314,10.797,-137.333,-104.243,17.99,-34.083,-2.012,-12.957,-22.388,31.602,-15.244,-9.144
73.2946,8.75,-17.947,-154.584,-79.544,22.42,-64.832,-15.127,18.035,0.291,-2.623,-5.988,-15.686
73.41279,8.823,-21.4,-148.928,-90.865,29.371,-57.625,-20.355,2.966,-4.12,4.537,-10.02,-15.116
73.60222,8.853,-21.221,-150.219,-72.858,32.616,-59.741,-25.478,24.489,-1.212,1.384,-4.346,-13.999
74.13029,7.763,2.197,-150.208,-79.213,19.102,-38.474,-12.298,23.664,-14.451,23.282,-11.641,-13.45
75.20712,5.318,54.513,-118.176,-78.001,9.385,-51.924,-5.828,6.409,-25.737,0.93,-7.827,-4.327
75.51197,9.734,-38.668,-165.364,-82.507,29.645,-41.795,-13.27,22.187,-3.056,27.331,4.21,-16.638
76.76653,9.116,-23.303,-163.714,-66.856,20.482,-60.681,-18.314,36.977,1.385,3.55,-0.224,-19.039
77.60644,7.227,60.185,-100.889,-37.859,-3.614,-61.27,-4.25,4.539,-23.008,-2.712,-16.925,3.103
77.89324,6.234,33.548,-128.522,-84.092,14.623,-49.729,-14.476,3.991,-22.514,4.606,-11.568,-9.382
78.0566,8.598,-15.964,-154.136,-96.382,22.959,-35.08,-8.522,5.391,-12.274,29.541,-15.52,-14.173
78.58268,8.72,-19.31,-143.999,-91.371,33.186,-53.697,-20.535,-0.024,-5.99,8.492,-3.444,-14.242
78.94698,9.011,-25.428,-146.307,-84.588,37.347,-51.487,-24.384,9.748,-4.802,11.16,-2.394,-12.264
79.36689,8.737,-17.054,-162.238,-65.152,22.457,-47.614,-16.056,41.98,-4.31,16.885,0.339,-16.673
80.31052,5.933,40.816,-127.448,-79.349,10.726,-52.653,-10.908,8.337,-22.519,1.594,-7.272,-8.527
80.61519,7.789,1.27,-141.772,-103.696,18.154,-40.678,-3.31,-10.255,-17.849,21.588,-22.284,-8.438
81.13184,10.469,-53.018,-155.942,-84.628,42.946,-52.705,-21.611,15.501,2.742,11.978,-0.172,-9.681
81.93755,9.507,-33.124,-169.343,-70.853,24.5,-46.962,-14.261,37.99,-1.043,20.217,0.496,-17.204
82.67995,6.376,31.741,-129.955,-84.7,13.246,-49.479,-5.983,3.88,-19.174,7.986,-10.99,-10.555
82.94744,6.385,31.652,-132.456,-74.045,14.348,-51.888,-11.488,18.423,-16.819,4.368,-9.591,-12.342
83.18812,8.994,-23.393,-158.366,-93.217,25.32,-27.443,-4.299,11.733,-12.156,42.363,-7.183,-13.263
83.6537,9.403,-33.14,-151.985,-87.481,35.015,-55.438,-22.749,10.01,-1.306,5.405,-11.051,-13.792
84.48077,8.78,-18.153,-161.327,-68.087,22.445,-51.948,-17.063,38.256,-2.233,9.338,-4.749,-17.35
85.72059,6.292,33.84,-126.558,-83.966,12.536,-58.668,-7.913,1.708,-18.526,-3.796,-7.425,-8.545
85.81156,13.301,-69.913,-70.444,-118.045,50.564,-30.752,60.557,-23.798,-17.864,43.109,2.446,-9.277
86.00136,21.647,-94.518,19.95,-75.566,15.414,-42.542,48.575,10.659,-9.534,6.113,8.626,-2.872
86.28005,26.699,-97.411,19.556,-24.592,18.164,-41.202,1.124,-8.191,1.01,11.082,-1.656,12.93
86.40168,25.626,-120.12,-8.038,32.126,23.861,-38.877,6.525,10.84,-9.789,-8.631,-25.006,16.469
87.32925,15.998,-104.298,-85.01,-54.223,41.809,-36.464,0.584,14.31,-31.479,6.362,-12.93,4.8
87.50671,13.763,-55.926,-99.572,-47.429,27.497,-43.075,-14.633,16.286,-10.902,0.753,-4.588,-2.911
87.98177,12.311,-23.223,-87.449,-62.908,4.642,-43.839,-16.769,7.463,-15.991,0.921,-3.735,-2.676
88.10063,14.806,-54.598,-49.72,-109.62,19.999,-34.609,19.313,-40.499,-20.165,16.096,0.267,2.496
88.28313,22.08,-115.063,-6.958,-84.343,6.961,-41.395,38.263,-6.245,-18.25,2.258,8.158,3.771
88.44358,26.809,-90.247,30.045,-36.388,-1.445,-32.053,21.086,4.629,1.019,4.389,-3.343,-1.278
88.59052,28.713,-108.709,17.403,13.07,39.21,-19.808,6.443,-0.493,10.97,10.958,-25.118,0.877
89.31633,20.231,-125.937,-51.98,-64.547,17.399,-41.689,30.825,-4.499,-9.424,8.796,-5.117,-9.024
89.41524,24.38,-136.325,12.14,-91.657,43.149,-46.772,14.579,2.734,15.114,10.695,18.799,-20.819
89.7098,29.724,-71.815,55.267,-11.241,29.343,-48.933,15.043,8.748,15.164,1.451,-0.994,-15.029
89.87937,26.773,-72.858,-11.224,57.884,18.62,-30.231,6.521,3.358,-0.32,8.989,-46.313,0.872
90.89138,18.177,-42.93,-117.414,-34.23,21.251,-39.134,-19.987,-25.661,3.277,-11.714,-7.906,-0.853
91.32485,16.532,-96.614,-112.228,-64.349,21.674,-53.108,-13.194,-0.324,-1.281,-1.468,0.542,-7.326
91.42132,17.603,-121.172,-120.217,-85.689,20.05,-64.177,-14.95,-2.808,-3.449,-2.037,4.584,-11.869
91.65129,22.039,-78.502,-32.665,-77.98,-18.926,-20.701,12.892,4.893,-10.959,-1.664,-2.229,17.286
91.77578,26.393,-126.981,-11.828,-36.619,-3.875,-21.74,5.557,15.384,-9.358,-2.536,2.81,16.935
91.91107,27.322,-102.231,14.914,-23.142,20.045,-9.121,12.327,-10.578,-2.67,-2.195,-22.092,7.077
92.77043,23.903,-97.988,-1.153,-69.956,-5.416,-34.543,28.996,23.643,4.144,3.871,12.858,-8.916
92.94848,28.238,-66.946,38.968,-35.688,7.285,-38.13,27.916,14.951,11.221,7.926,-2.31,-7.86
93.21075,30.074,-62.382,72.955,2.274,25.081,-40.559,33.023,3.097,1.502,8.815,-11.81,-6.453
93.42599,29.72,-107.541,40.774,35.298,44.065,-30.434,18.623,5.038,15.568,-0.831,-21.52,-10.25
93.95642,26.059,-120.093,15.013,-88.566,-0.525,-32.714,34.343,15.8,-6.748,7.337,15.57,-14.272
94.21129,30.658,-32.596,32.52,-28.569,-12.651,-25.618,7.1,14.194,-21.952,-21.295,-0.908,7.854
94.32032,31.69,-51.054,36.818,-14.212,5.978,-25.249,14.387,-0.038,-6.681,7.793,-7.526,12.873
94.62141,25.682,-86.281,-28.561,70.449,15.543,-29.718,-11.849,15.306,-26.305,6.913,-48.847,21.656
96.09215,19.811,-154.375,-116.9,-84.113,29.069,-55.88,-13.587,-1.405,6.633,6.458,5.619,-0.447
96.25769,24.77,-187.622,-35.813,-64.261,29.766,-31.672,26.627,9.432,-15.25,6.037,3.071,-10.742
96.359,26.908,-146.716,7.341,-46.672,20.101,-43.063,23.647,18.356,5.399,-2.154,3.562,3.233
96.46073,28.517,-140.317,10.62,-37.768,16.443,-37.708,16.697,16.065,11.986,4.963,-6.506,-7.025
96.64689,31.0,-99.96,10.556,-23.699,16.232,-35.387,7.88,-7.687,-0.004,5.366,2.022,7.422
96.91918,28.661,-120.057,-7.315,36.844,26.159,-33.839,-4.61,10.093,8.568,7.087,-33.347,-7.702
97.34757,24.212,-97.014,5.57,-99.168,22.916,-46.281,29.187,6.922,-4.791,18.66,14.693,-12.023
97.61075,31.156,-87.254,35.344,-22.224,16.317,-28.94,3.147,2.158,3.268,7.64,1.604,-11.885
97.72154,31.918,-49.435,47.108,1.122,11.592,-32.951,-9.581,8.887,9.964,5.643,-10.868,-21.607
97.93587,28.924,-69.149,35.095,31.059,1.413,-25.184,13.662,-15.176,-17.536,7.74,-36.835,-2.011
98.46948,28.292,-94.517,32.581,-61.268,49.042,-12.38,39.886,4.399,42.473,9.964,6.373,-18.119
98.6219,31.432,-79.757,31.446,-15.689,39.604,-47.365,34.566,-8.488,32.511,19.532,-12.836,-14.707
98.69134,33.207,-80.231,62.803,-20.748,37.583,-35.398,17.809,14.894,25.078,-8.631,-2.526,-9.197
99.0683,32.115,-91.994,15.59,33.591,28.315,-28.554,8.993,-5.77,2.094,-9.924,-36.38,17.259
99.66571,27.119,-141.069,-11.049,-60.749,-6.505,-36.043,36.365,22.523,8.029,1.308,4.909,-5.074
99.80417,31.902,-81.495,21.849,-49.497,-5.165,-26.349,-0.197,-17.285,-9.042,-6.009,3.519,-2.68
99.97215,32.101,-110.68,-1.79,45.164,10.145,-24.076,1.601,15.335,-1.487,-25.858,-38.99,3.679
101.02957,21.809,-156.107,-84.122,-55.006,15.994,-49.635,-18.348,15.743,-8.047,1.906,1.48,-5.246
101.2088,21.295,-149.767,-88.769,-58.845,11.695,-39.183,-19.78,4.51,-9.161,-2.333,-8.725,-3.758
101.60005,19.951,-133.575,-102.432,-65.65,16.35,-54.613,-30.901,12.319,7.271,-12.505,0.989,-2.71
101.96875,23.623,-118.064,-26.847,-95.36,-0.292,-32.646,27.029,-2.131,-15.017,5.221,12.094,-6.732
102.15329,28.384,-95.505,30.809,-25.923,6.752,-39.707,16.78,4.09,3.15,7.376,-5.572,-2.354
102.28358,29.053,-135.944,10.745,-2.502,14.631,-18.923,7.138,9.384,-17.236,-1.69,-23.324,13.881
103.06059,24.771,-119.257,-46.078,-68.67,-29.005,-28.417,7.304,0.539,1.295,6.565,0.644,-8.782
103.12649,28.766,-100.155,15.183,-68.144,-8.083,-23.97,30.195,12.126,0.988,4.911,-5.115,-4.643
103.31066,32.082,-86.566,35.84,-25.107,8.432,-37.743,14.573,21.445,14.987,8.024,3.36,-17.434
103.59605,31.149,-100.59,13.112,44.424,6.988,-40.68,13.248,6.031,2.284,8.949,-35.915,0.585
104.16626,27.635,-87.083,15.315,-118.165,5.993,-19.78,35.573,-9.477,15.735,15.685,1.335,-7.532
104.37383,33.523,-90.806,16.102,-5.877,26.233,-46.612,5.248,9.443,12.847,4.408,-15.368,-2.023
104.49002,35.16,-75.257,29.154,-24.516,4.679,-31.138,0.779,14.349,-16.582,-7.669,3.98,15.302
104.64721,33.873,-89.437,13.767,40.378,18.713,-18.881,5.934,-1.069,-6.671,-9.033,-29.371,6.539
105.31102,30.62,-105.839,-7.414,-96.341,-13.272,-24.239,13.307,-5.158,-4.787,21.728,11.183,-7.003
105.48367,34.812,-81.573,18.03,-30.479,-15.551,-19.946,-9.195,5.754,-18.948,-13.259,4.623,-3.281
105.69941,35.792,-68.139,12.366,-26.58,-32.091,-29.23,-9.521,12.295,-30.232,-4.887,7.17,2.46
105.84603,35.774,-77.085,15.273,7.713,-21.939,-17.483,10.958,-5.915,-14.455,-7.493,-24.691,-2.283
106.47528,33.359,-162.298,8.742,-73.418,12.259,-24.499,28.135,18.372,9.259,1.44,10.606,9.387
106.67315,37.325,-95.971,25.122,-16.05,8.185,-46.677,4.01,12.49,5.058,-11.118,14.138,3.453
106.85293,38.266,-79.804,32.799,-14.013,9.39,-35.719,6.635,1.795,14.845,0.424,0.722,1.271
107.02073,33.895,-109.89,-26.212,95.015,21.016,-22.396,-7.634,11.735,7.808,-4.594,-67.709,11.891
108.18825,20.424,-152.031,-103.564,-71.848,19.951,-51.957,-16.3,10.285,-6.113,4.131,2.023,-6.096
108.38626,20.849,-156.279,-96.665,-72.047,17.289,-49.293,-10.834,13.704,-2.277,2.898,0.311,-11.936
108.56635,21.866,-165.539,-104.318,-74.866,-0.857,-50.504,0.672,10.565,-6.917,-0.355,-2.172,-10.648
108.71333,26.254,-130.719,-28.928,-94.522,-11.484,-27.782,25.632,3.197,-2.73,0.669,15.244,10.59
108.92145,31.616,-115.438,15.442,-56.331,6.626,-31.758,31.566,-3.955,1.665,10.293,9.143,3.471
109.09365,32.535,-127.567,-5.747,8.064,18.496,-34.43,5.695,8.798,17.723,-7.651,-34.045,-10.449
109.79651,29.625,-138.765,-14.926,-100.335,-6.469,-32.506,11.39,-1.337,8.408,-3.034,22.322,-1.713
110.01955,34.818,-117.458,-9.008,-21.056,10.347,-19.081,-7.637,8.527,10.85,6.422,-21.578,-5.803
110.85946,30.09,-129.704,-4.549,-118.9,5.087,-31.083,25.115,13.632,16.02,-0.202,16.192,0.025
111.12363,35.198,-102.774,11.154,-11.64,11.779,-23.454,20.793,6.171,1.723,-6.066,-22.829,5.965
112.00971,33.076,-114.197,0.364,-83.812,-6.201,-17.571,10.988,7.632,3.062,-8.587,18.092,-6.879
112.20159,36.821,-73.443,17.122,-34.721,-6.323,-27.871,4.554,-4.03,-5.092,-1.47,1.177,0.323
112.40844,37.405,-88.216,3.816,7.175,-11.483,-33.804,10.853,-24.206,-8.175,-1.551,-16.947,-0.372
113.04195,36.605,-154.136,9.284,-89.638,1.776,-43.853,16.238,22.709,-3.187,4.559,26.185,10.252
113.38245,40.645,-92.674,20.62,-17.966,19.413,-41.681,6.489,17.027,16.305,-4.471,6.938,9.648
113.60907,39.502,-107.319,-9.627,29.92,18.924,-27.595,6.171,1.383,19.06,-13.655,-20.042,8.02
114.19034,35.247,-84.82,-24.633,-74.051,-4.05,-15.051,17.584,12.289,42.165,-16.827,18.544,4.346
114.34621,37.908,-58.518,-2.67,-29.013,-18.963,-27.212,9.017,11.88,-3.204,5.829,-5.69,2.633
114.46086,38.458,-53.502,26.16,-32.21,-0.943,-29.034,22.056,9.534,-1.683,15.502,-8.5,9.334
114.79569,38.016,-54.545,10.498,-16.826,3.054,-28.847,-3.037,0.747,-5.576,6.558,-10.505,6.961
115.09465,34.271,-125.408,-16.917,-0.592,14.056,-39.326,6.911,-24.536,4.443,7.837,-24.304,14.865
115.60045,30.564,-199.339,-33.744,14.505,19.347,-54.365,16.814,7.341,-7.688,-8.344,-15.548,12.896
116.29147,30.026,-121.023,-9.903,-147.614,7.633,-41.19,22.127,53.221,8.774,-15.401,24.05,-0.762
116.56054,37.527,-42.246,-9.195,-21.855,-1.648,-13.686,2.553,-21.567,-3.431,-4.483,-24.829,-0.828
117.43107,37.955,-77.521,16.193,-132.505,0.191,20.091,17.609,48.764,18.487,-22.348,4.44,4.21
118.6127,42.457,-45.665,3.937,-92.651,-2.424,-24.025,-3.194,40.504,1.162,-11.637,14.032,1.434
118.92054,45.063,27.218,2.185,-28.354,17.038,-27.533,-9.223,4.713,-1.108,9.105,-4.17,1.982
119.10073,43.245,-8.6,-23.246,20.238,18.275,-22.374,-5.376,-25.706,4.428,-2.04,-40.131,-4.038
119.70463,42.704,-28.02,-2.446,-72.628,-3.057,-8.363,7.197,32.83,-2.205,-20.166,15.388,-9.589
119.89061,46.195,34.732,-1.017,-42.169,11.472,-24.831,-9.921,10.856,-28.116,3.444,3.008,-12.101
120.2907,45.706,7.554,-26.119,0.538,33.251,-33.396,-0.27,-23.035,-14.636,-9.747,-26.354,1.09
120.82658,43.478,-43.526,17.08,-93.965,-7.044,-32.485,11.383,40.561,-1.162,-3.544,23.8,13.854
121.03995,49.282,41.004,0.751,-29.042,21.097,-36.523,-1.82,16.72,-22.151,-3.791,-0.405,9.83
121.39161,46.65,-16.624,-31.956,45.717,25.302,-28.204,5.861,-40.553,-5.961,-4.293,-38.671,12.39
122.01361,43.28,-55.625,13.435,-114.582,17.238,-17.641,1.954,49.572,9.014,-9.735,16.495,4.353
122.26,49.523,41.833,-6.622,-38.806,36.85,-35.361,-7.358,4.726,6.626,13.786,2.314,9.751
122.60608,48.743,23.998,-22.418,-0.113,20.873,-24.345,-6.019,-36.46,1.134,-4.709,-36.839,19.195
123.57737,49.099,25.08,2.681,-109.101,23.789,-17.062,4.742,49.018,9.992,-35.458,23.658,-5.894
123.8551,52.343,70.115,6.688,-7.335,-18.98,-29.953,-12.933,-13.843,-0.873,2.667,-13.899,-10.487
124.59873,49.128,23.662,17.541,-32.684,-20.171,-31.325,3.31,-5.558,-7.288,-5.852,-4.592,-5.62
125.29814,48.934,51.102,34.411,-36.903,-22.772,-32.55,4.021,33.072,-5.871,-5.961,9.768,4.96
126.90889,50.377,89.079,50.702,-14.429,-10.479,-21.064,1.793,10.183,-20.88,-2.884,-5.873,7.958
127.21048,50.899,91.846,49.943,-20.193,-22.49,-46.348,6.366,6.801,-8.374,0.176,-1.714,4.433
127.78517,51.443,122.459,74.497,-0.962,-5.081,-29.85,4.943,8.527,-13.84,3.675,-1.686,6.508
128.20295,44.837,109.741,-2.33,183.625,7.427,17.893,-26.387,9.041,-4.63,-16.044,-136.422,14.05
130.17243,10.729,-11.113,-120.606,-12.261,-6.711,-69.615,-1.287,61.187,-27.349,-18.594,-9.013,-7.395
131.38594,7.693,5.825,-151.598,-57.622,18.76,-48.5,-11.773,46.94,-7.258,15.76,3.487,-16.968
132.55324,5.211,57.695,-116.259,-78.034,11.631,-32.745,4.49,12.045,-29.204,24.222,-22.107,-3.761
133.84961,6.353,34.595,-135.564,-59.426,14.369,-40.367,-5.111,40.574,-17.917,21.614,1.697,-14.741
135.04122,6.862,26.508,-135.887,-51.234,16.821,-38.755,-2.04,48.42,-20.112,25.476,4.188,-11.774
136.29061,7.764,5.329,-151.848,-56.225,16.962,-51.85,-11.505,49.626,-7.325,9.497,4.542,-16.789
137.47447,5.202,58.46,-115.381,-73.216,14.118,-28.607,6.462,17.944,-28.092,32.276,-16.462,-7.756
138.71651,6.843,23.347,-138.778,-77.19,15.504,-29.411,-1.481,22.921,-22.057,34.666,-6.649,-11.336
139.58485,6.516,27.868,-127.51,-81.888,18.162,-57.516,-16.514,3.58,-17.594,-2.688,-7.214,-11.789
139.73125,7.584,4.122,-136.447,-90.605,24.635,-56.964,-21.977,-2.612,-12.94,-0.51,-9.535,-12.98
139.85977,7.682,3.741,-143.547,-65.698,24.937,-57.374,-24.559,32.03,-7.561,-2.438,-6.229,-12.939
141.25651,7.302,12.185,-145.344,-78.391,17.455,-35.632,-10.118,22.332,-17.75,24.561,-5.45,-12.907
142.56844,9.234,-27.918,-160.044,-75.656,29.333,-37.739,-15.365,32.572,-6.353,24.68,-9.361,-13.311
143.30503,6.864,20.366,-132.329,-74.212,21.408,-59.744,-21.85,14.745,-13.06,-5.196,-5.643,-13.177
143.78816,7.518,6.039,-139.469,-98.636,20.134,-42.102,-10.276,-6.136,-17.85,18.832,-17.326,-11.197
144.2283,7.606,4.974,-146.285,-84.161,17.454,-53.444,-15.398,11.602,-10.796,5.483,-9.821,-17.116
144.57002,7.122,15.556,-137.688,-75.182,20.513,-53.025,-16.519,18.001,-12.327,5.604,-3.635,-15.199
144.70621,7.753,0.722,-139.678,-90.92,26.611,-43.253,-17.748,2.142,-14.624,17.47,-10.041,-13.765
144.86141,8.551,-16.042,-144.715,-95.473,29.712,-51.98,-19.539,-2.872,-8.223,9.433,-9.203,-14.348
145.08458,9.611,-36.351,-161.092,-86.774,28.521,-52.505,-14.654,16.455,-0.117,11.886,-12.024,-14.848
145.51741,8.511,-14.22,-148.969,-76.56,28.039,-60.942,-24.519,19.973,-3.339,-2.685,-8.319,-14.463
146.18054,6.264,33.04,-123.883,-75.235,20.769,-56.304,-19.642,10.078,-18.289,-2.321,-3.438,-11.014
146.35673,8.475,-12.448,-159.289,-74.886,18.423,-58.646,-16.627,26.14,-3.115,5.182,-1.202,-19.124
147.08499,7.588,5.301,-143.048,-84.403,18.103,-61.869,-16.691,7.209,-8.599,-3.946,-9.128,-15.918
147.18721,8.543,-15.238,-150.336,-88.575,25.714,-53.438,-18.187,6.522,-6.882,9.678,-2.761,-15.792
147.40494,9.329,-31.348,-151.628,-85.748,34.705,-54.785,-20.353,11.733,-0.545,8.284,-6.642,-14.074
147.52794,8.519,-14.662,-148.192,-78.544,29.403,-57.693,-24.871,18.025,-4.743,0.907,-7.091,-14.652
148.86313,12.442,-62.93,-105.878,-113.78,30.376,-49.629,37.35,-15.004,-15.682,14.542,11.744,-8.202
149.00902,18.512,-93.342,-12.11,-66.113,29.742,-44.618,44.32,10.496,-9.789,5.948,3.45,-22.807
149.13601,23.455,-87.094,41.928,-62.186,17.643,-30.923,27.526,-3.211,-14.356,6.7,8.808,14.962
149.4678,23.117,-100.42,-37.912,78.192,32.391,-36.013,-23.221,54.418,-10.904,-8.267,-33.299,12.923
151.09805,13.721,-55.046,-113.862,-85.795,-6.929,-47.923,-14.388,-3.643,-18.798,5.296,-11.526,-20.672
151.23664,17.071,-85.594,-40.561,-112.993,19.929,-40.119,31.051,-20.673,-24.055,11.792,5.27,-16.078
151.42834,24.799,-96.584,52.281,-40.998,38.291,-25.832,29.819,11.664,13.859,17.003,-3.641,-18.11
151.60322,26.469,-106.315,23.12,15.243,37.418,-28.156,10.935,2.476,9.51,-8.669,-31.101,-3.6
152.37061,20.454,-70.298,-3.129,-85.227,8.528,-40.479,44.752,-4.59,-0.532,5.911,4.802,6.998
152.55923,27.026,-85.582,44.615,-58.563,27.489,-33.212,14.99,-8.251,13.297,11.964,6.31,-23.883
152.7522,25.975,-102.817,-36.132,67.769,21.969,-36.243,-12.386,27.31,8.338,-7.318,-50.178,10.857
154.26227,17.035,-111.016,-126.71,-81.773,18.283,-52.376,-15.149,-5.265,8.734,11.982,-11.228,-5.552
154.54612,20.316,-95.506,-30.283,-118.574,-1.326,-41.269,18.048,-10.416,-10.172,4.776,22.52,-12.96
154.71093,27.372,-125.916,17.226,-33.367,17.892,-34.968,26.955,12.693,13.867,3.553,-7.939,-2.614
154.9107,28.137,-98.585,-8.478,25.002,22.53,-24.325,5.311,-3.701,1.792,-1.091,-22.229,14.316
155.68145,24.815,-72.574,-7.334,-73.302,-5.666,-13.547,14.364,0.737,18.69,10.998,9.719,-7.733
155.84063,29.452,-83.373,30.165,-36.211,30.235,-32.032,12.602,-0.277,24.055,18.249,-9.738,-19.083
156.14086,28.943,-88.481,20.814,32.175,30.44,-23.823,13.918,-5.582,3.563,6.061,-38.639,-9.556
156.79968,24.708,-88.889,2.822,-86.966,9.481,-22.891,15.982,-5.109,1.397,20.717,15.189,7.418
157.01819,31.968,-84.778,38.62,-24.638,32.961,-31.287,1.982,3.37,16.741,9.081,-8.663,-16.11
157.20481,32.265,-95.741,37.669,28.112,24.729,-26.929,6.329,10.607,7.263,-3.073,-16.8,-20.414
157.61129,25.528,-131.373,-28.472,64.975,22.907,-33.149,-16.708,45.915,-6.671,-1.212,-34.847,-5.015
158.62454,18.184,-130.241,-120.484,-69.349,29.154,-57.725,-19.395,8.655,7.61,-3.452,11.189,-9.339
158.91175,19.007,-146.438,-118.525,-77.883,21.699,-51.08,-16.235,1.947,-6.955,6.861,4.331,-12.595
158.99683,22.002,-145.924,-64.089,-88.711,12.984,-33.97,6.346,10.693,-4.968,2.051,7.32,-8.36
159.15224,27.577,-116.905,-2.115,-46.73,12.008,-2.488,19.603,7.652,-5.254,4.034,-20.951,22.627
160.13066,23.811,-104.26,-12.908,-81.322,-5.397,-27.163,16.635,-2.448,6.768,10.152,-1.628,-6.973
160.25125,29.778,-104.496,17.558,-48.888,11.548,-10.363,17.685,12.635,21.692,21.076,-16.506,-33.851
160.40168,31.171,-79.69,40.238,-13.435,19.324,-31.502,23.095,12.814,6.668,17.632,-8.044,-13.704
160.59959,29.552,-79.921,13.305,25.3,13.12,-22.46,6.426,-4.284,-3.745,0.373,-32.171,-4.69
161.24481,27.977,-100.749,20.958,-71.874,30.649,-12.107,12.324,8.981,8.392,-1.239,15.262,0.171
161.46612,31.894,-30.942,39.59,-9.858,-8.444,-37.798,35.009,6.057,-2.47,-6.928,0.378,20.093
161.57474,33.302,-70.216,43.624,-19.02,16.549,-30.469,27.662,-15.461,0.957,11.95,-11.593,-0.282
162.01215,29.689,-137.209,-14.995,16.658,16.743,-33.411,-0.064,-5.021,7.005,7.262,-22.467,-1.994
162.42454,28.381,-138.698,-33.684,-56.695,-37.101,-17.391,21.977,6.115,-13.652,2.192,8.792,9.74
162.50249,31.058,-115.699,14.977,-51.99,-12.129,-28.051,22.476,0.766,-4.327,-9.024,5.658,7.231
162.71642,33.589,-90.869,18.097,-37.83,-13.649,-28.822,-0.998,-4.511,-14.52,-14.007,-7.18,6.142
162.85211,32.751,-128.593,3.17,17.79,10.396,-22.201,2.203,-13.04,-9.995,0.87,-27.761,-0.92
163.63741,27.696,-192.605,-83.333,0.379,27.051,-36.825,-0.824,14.442,3.444,-15.475,-9.984,13.034
164.57501,24.957,-171.335,-77.812,-87.769,8.565,-35.128,-16.731,10.917,8.109,0.637,9.676,2.82
164.67211,27.712,-116.717,-0.838,-62.685,-13.916,-35.494,10.346,2.416,-5.756,-2.995,5.558,3.634
164.83066,30.919,-115.029,14.743,-21.977,12.246,-37.621,5.68,27.84,5.409,-9.063,0.886,3.387
165.06989,29.14,-134.647,-4.662,19.2,5.193,-31.45,4.289,-0.843,-7.069,-9.64,-24.865,-3.965
165.65905,25.529,-104.371,-21.113,-83.276,-18.54,-14.824,16.389,1.391,2.129,-3.539,3.781,-6.385
165.79637,30.054,-52.035,6.909,-35.732,-21.017,-28.939,26.285,6.072,-15.147,-7.071,9.255,21.545
165.91805,30.807,-81.037,5.121,3.223,9.356,-18.39,9.468,-9.81,2.747,-4.681,-34.518,-1.916
166.72535,28.173,-107.128,-1.014,-109.602,2.934,-29.816,10.592,-4.387,3.391,4.99,9.587,6.157
166.92921,34.508,-92.304,9.313,-33.203,2.851,-28.883,25.481,-9.937,-1.778,2.561,-3.195,17.86
167.04902,36.051,-111.033,14.551,-15.812,24.259,-34.388,5.593,5.555,14.384,-1.006,-10.261,-7.354
167.14177,36.245,-119.945,16.026,-21.828,9.79,-36.108,16.056,4.383,-4.756,-5.352,4.804,14.505
167.58449,35.693,-157.286,8.778,-18.756,-5.017,-35.377,13.375,7.02,-11.279,-11.785,12.626,8.465
167.77565,36.783,-155.339,-7.191,-5.2,-5.035,-62.306,1.267,1.919,-5.892,-4.827,1.15,8.865
167.87492,37.303,-150.763,10.737,-49.256,-11.055,-39.307,-0.566,-0.77,-12.073,-9.827,-2.616,3.415
168.01964,38.757,-123.907,18.712,-37.241,-7.444,-28.592,-0.465,0.684,-13.729,-1.358,1.422,3.654
168.28168,37.196,-107.421,6.927,25.027,1.227,-17.565,-5.794,-9.329,-8.879,-6.977,-29.85,3.668
168.94739,33.058,-121.11,4.663,-62.093,13.197,-16.066,40.239,10.143,22.115,-3.562,-2.063,9.541
169.09383,36.688,-92.972,20.24,-26.699,2.514,-30.486,14.247,11.357,-10.288,8.021,13.057,19.787
169.36005,34.91,-115.824,8.12,54.788,22.421,-16.252,3.257,16.671,-3.401,-23.412,-37.014,23.924
170.24281,24.372,-185.024,-61.31,-45.715,32.503,-54.494,17.083,5.448,0.397,-2.961,-3.485,8.172
170.56018,26.746,-205.994,-59.492,-40.537,19.254,-63.97,-4.47,16.047,0.401,-11.402,10.171,3.978
170.65578,28.162,-211.042,-54.375,-49.799,14.915,-58.259,-1.312,4.943,-4.971,-4.73,13.289,5.961
170.74803,29.934,-215.276,-36.017,-46.421,10.579,-69.36,7.957,10.644,-0.559,-14.089,9.023,6.137
171.00821,31.291,-183.934,-4.343,-33.013,-8.501,-44.647,15.637,1.608,-7.484,-5.675,6.394,9.866
171.11229,32.381,-179.809,-5.77,-29.054,-3.547,-59.331,17.96,18.137,-0.649,-14.849,4.14,10.566
171.17465,34.233,-143.913,-6.062,-47.493,4.92,-28.49,17.891,3.199,-1.999,-4.897,9.986,12.871
171.2995,36.488,-134.901,1.653,-25.933,-2.447,-50.799,7.268,12.332,-3.685,-14.926,12.196,4.826
171.47977,36.624,-140.615,8.294,-18.799,6.155,-53.419,-14.011,0.994,0.204,-14.305,4.184,-2.417
171.56014,37.077,-129.656,-9.614,-29.274,-15.466,-35.041,4.006,-0.129,-5.633,-0.13,5.074,7.063
171.65528,37.498,-151.481,-4.583,15.776,-5.205,-43.33,13.249,-4.424,-5.913,-0.668,2.556,9.738
172.00195,35.219,-185.98,-11.745,-30.547,-7.084,-27.977,7.203,6.098,-4.563,-6.158,14.963,6.721
172.11773,36.186,-161.6,-10.859,-41.436,-10.896,-43.011,5.882,10.384,-3.884,-17.066,13.582,8.776
172.21134,37.739,-126.846,8.136,-38.568,3.274,-46.006,-7.019,5.185,-2.509,-7.865,-3.002,2.862
172.36272,37.753,-117.465,-4.014,-29.962,3.522,-30.166,-3.764,5.359,-3.051,1.945,-4.134,10.197
172.47846,38.099,-115.885,10.249,-11.553,18.462,-44.623,4.54,0.212,21.36,9.289,5.115,-14.906
172.57138,38.683,-109.096,13.974,-20.26,2.161,-48.272,-2.379,21.642,-0.237,-3.852,7.192,-5.238
172.70422,36.568,-111.358,-7.897,5.144,7.715,-27.108,-2.963,-24.822,0.931,6.664,-34.221,6.411
173.11642,34.586,-173.367,-31.356,-49.715,30.533,-31.777,-1.29,23.946,28.714,3.96,16.193,5.855
173.2219,36.927,-119.0,-14.505,-28.806,-10.46,-43.178,5.713,9.723,2.737,-4.569,7.698,19.006
173.29546,37.637,-90.667,14.766,-35.042,-11.906,-30.713,14.216,8.314,-10.593,-5.625,-0.998,8.139
173.45247,37.378,-92.087,12.458,7.944,4.501,-28.787,5.463,-7.917,1.607,-1.806,-25.673,3.233
174.15134,31.613,-148.358,-31.58,-86.976,-6.893,-33.06,-10.352,20.25,8.01,-9.005,9.266,0.126
174.27673,36.097,-57.625,4.641,-39.26,-33.722,-28.047,9.364,13.278,-9.57,-13.043,11.338,-6.072
174.45356,37.982,-72.543,17.975,-30.728,-12.787,-34.068,5.395,4.374,-6.907,3.248,-2.523,-2.923
174.62005,38.251,-53.203,29.64,-19.547,-19.956,-27.214,7.996,6.338,-12.295,-8.71,-2.61,-3.265
174.7932,36.061,-92.187,5.034,23.25,-19.102,-27.227,5.7,-7.644,-15.2,-3.597,-25.974,5.882
175.26381,35.103,-116.837,3.057,-80.829,3.31,-8.736,25.817,24.443,2.788,1.955,17.118,21.201
175.4156,40.128,-93.78,20.846,-40.812,5.319,-34.923,19.268,14.629,5.63,0.341,7.76,14.563
175.73533,40.631,-89.953,14.178,-19.734,10.491,-36.813,10.363,17.508,7.654,-0.712,-0.646,12.166
175.85501,39.745,-96.365,1.818,-18.829,0.067,-36.988,14.576,-12.998,-3.425,2.372,-15.129,8.805
176.11306,39.37,-157.769,7.261,-29.202,10.054,-60.202,14.25,2.763,7.792,-7.856,4.603,1.858
176.3785,41.523,-126.793,12.055,-53.513,-1.809,-43.198,0.583,11.898,5.402,-7.835,5.316,5.076
176.64413,41.686,-103.409,1.097,13.252,2.883,-29.915,-5.804,1.533,9.519,-2.455,-18.477,-1.679
177.3878,34.303,-204.462,-19.059,-25.91,13.783,-65.915,13.609,5.415,5.018,-13.691,1.113,10.907
177.57401,34.348,-203.553,-18.176,-20.69,12.519,-65.861,10.774,12.786,-1.059,-12.953,-3.305,8.01
177.76059,35.266,-203.592,-22.57,-20.321,0.898,-62.18,1.666,5.223,-0.976,-4.774,1.365,5.207
178.12041,36.053,-196.04,-7.001,-23.567,7.378,-62.198,15.408,12.315,-4.372,-1.353,2.889,9.206
178.29973,37.176,-160.121,-4.592,-21.373,-0.136,-48.623,2.495,10.231,6.29,-1.893,8.835,2.943
178.49025,41.919,-110.273,-2.141,-56.0,5.728,-28.411,12.524,-4.47,0.974,-20.682,9.06,3.11
178.73061,42.622,-45.994,-18.455,-3.255,-0.018,-17.065,-4.457,-8.28,6.452,-16.429,-31.518,5.304
179.42132,36.613,-142.345,9.043,-17.097,-1.33,-40.954,4.839,6.055,0.885,-1.438,2.314,-13.802
179.50172,40.973,-74.365,11.38,-50.005,2.548,-0.703,7.569,-1.401,19.35,-31.018,-14.222,-1.249
180.49574,43.463,-49.342,30.029,-109.15,2.988,-11.908,1.461,39.762,6.63,-18.656,11.207,-6.884
180.74444,47.402,-8.864,-11.004,22.008,6.384,-35.698,-17.572,-20.004,0.118,-3.691,-32.492,3.471
181.44807,37.61,-167.609,-14.862,-28.822,-7.789,-35.445,19.609,10.571,-1.759,11.687,7.144,11.821
181.52875,42.785,-58.47,20.67,-106.041,-0.402,2.08,18.965,49.884,12.627,-18.409,-6.16,8.443
182.53175,40.892,-132.984,-2.805,-35.499,-7.751,-17.414,15.44,15.406,-3.494,8.108,7.533,5.575
182.65451,47.247,-23.085,20.905,-81.608,13.467,-6.718,-0.664,42.874,22.304,-30.671,15.708,-7.467
183.10218,47.527,-31.008,-27.989,15.728,11.236,-35.076,-14.14,-25.187,10.949,-4.911,-28.726,8.448
183.76336,44.869,-48.273,40.21,-132.89,0.461,-23.807,0.538,75.504,8.447,-23.175,17.644,-0.552
183.98957,48.348,15.507,-16.63,19.905,6.548,-19.135,-1.413,-35.979,0.441,-3.352,-44.067,16.365
184.78925,40.748,-117.108,11.11,-20.878,-14.099,-59.623,4.096,-4.793,-8.672,2.971,-0.193,5.253
185.04585,46.951,-16.025,39.528,-103.584,1.955,-4.04,-4.551,49.785,22.541,-36.314,10.498,-3.203
185.45224,51.56,38.52,1.067,-11.249,-5.528,-39.998,-14.978,-5.189,10.918,-1.041,4.979,6.841
185.59265,49.658,-12.346,-12.215,32.374,2.628,-24.299,-13.237,-39.984,1.082,-6.55,-34.474,4.279
186.14916,43.79,-141.893,-1.676,-7.82,-6.386,-35.907,5.048,6.366,-4.124,-6.509,-3.644,7.27
186.49728,48.501,26.6,-21.435,-104.291,27.546,-7.003,9.63,43.766,17.628,-19.15,14.362,-2.804
186.64803,51.783,66.423,-17.397,-47.945,0.627,-29.409,-7.984,-13.009,0.371,12.832,-4.565,0.355
186.8859,51.592,56.125,3.557,-9.453,-4.397,-27.597,1.734,-27.476,-9.042,-8.745,-12.388,-10.988
187.63478,48.14,-1.413,28.326,-20.495,-5.821,-33.991,1.041,4.97,-18.181,6.829,-5.643,-1.083
188.61002,48.014,44.589,12.157,-30.642,5.681,-42.948,11.324,2.304,-2.765,-2.903,1.665,1.527
188.94005,45.872,48.095,17.672,36.161,2.902,-7.08,3.153,19.564,-12.375,-14.67,-56.601,4.984
193.28481,10.99,-24.473,-123.746,-24.897,2.894,-55.23,2.306,54.019,-29.899,-4.037,-9.933,-10.021
194.51306,9.847,-36.353,-165.345,-71.944,21.951,-50.357,-11.931,34.78,-2.793,14.974,2.441,-18.864
195.38485,7.535,7.526,-135.47,-82.849,23.663,-44.901,-17.131,10.97,-17.927,10.123,-16.131,-8.841
195.69896,8.745,-16.34,-155.281,-76.108,24.036,-36.585,-13.256,30.492,-12.187,27.896,-3.698,-14.635
196.69565,7.056,16.72,-131.787,-80.625,21.417,-57.903,-20.045,7.6,-14.556,-3.463,-8.814,-11.633
196.8337,29.726,120.184,0.444,-30.702,-13.813,170.578,64.227,13.694,-3.67,-0.556,31.146,-8.313
197.09515,23.615,-4.61,-54.86,83.955,-29.764,-22.328,-16.638,9.617,-36.291,-2.091,-62.064,9.179
198.02499,13.116,-92.745,-166.913,-76.739,28.683,-52.068,0.374,24.337,-9.449,15.197,-5.326,-14.453
198.33488,12.256,-87.177,-168.241,-88.255,44.05,-52.039,-8.413,21.198,6.094,13.017,-20.272,-5.139
198.56376,10.705,-47.956,-146.569,-70.039,30.401,-54.896,-14.412,28.617,-12.666,-2.162,0.178,-13.021
199.10281,34.376,145.252,54.128,30.943,-24.191,18.814,47.685,-8.15,-11.294,-3.833,-44.855,17.263
199.34558,26.764,24.098,-25.448,42.545,-45.008,-16.502,16.481,-5.175,-32.466,2.233,-43.381,23.251
199.8693,23.556,6.534,10.654,-105.048,-28.734,52.793,18.868,27.635,-24.506,-35.915,-68.166,6.483
200.72676,18.297,-93.165,-102.277,-7.615,4.555,-19.988,-20.04,27.693,-15.506,3.762,-50.411,-5.088
202.19896,34.24,163.602,7.754,85.975,-17.331,7.808,22.467,-24.414,-10.922,-3.395,-28.57,16.274
202.62435,24.539,-38.386,-29.331,9.938,-37.479,-19.04,-2.359,1.017,-32.636,13.201,-39.043,13.038
203.06231,35.815,134.041,35.031,75.543,-8.549,2.301,24.86,-15.104,-16.925,-3.32,-28.399,9.461
203.38812,25.692,-16.977,-44.313,40.668,-55.792,-24.935,11.274,-9.204,-32.422,5.693,-34.856,19.36
203.93383,27.737,-20.722,7.177,-53.259,-21.904,21.482,-3.37,55.314,4.9,-38.163,-35.125,-1.152
204.74975,25.195,-71.234,-7.561,-100.703,-11.778,-16.035,-4.581,12.905,-4.915,6.325,-3.548,-0.53
204.94989,35.125,112.335,8.018,40.648,-24.208,67.263,20.647,3.912,-16.951,-45.609,-4.012,-24.543
205.50512,24.481,-35.514,-61.209,-32.117,-59.788,-22.991,-15.363,-13.425,-13.237,-13.492,-23.298,1.194
205.78512,21.857,-38.723,-76.951,-48.687,-29.086,-37.27,-33.824,14.468,22.704,-6.903,9.859,5.479
206.15342,24.579,-29.98,-32.306,-42.056,3.639,1.538,-8.901,12.216,15.897,14.24,-16.924,11.435
206.77311,21.91,-33.385,-102.875,-47.942,-28.457,-41.931,-26.782,-10.81,21.925,18.089,5.783,10.633
207.00662,20.92,-10.368,-98.68,-42.876,-30.087,-49.826,-44.91,-4.756,24.804,12.232,-9.777,8.027
207.3781,27.347,52.005,-8.477,-22.952,-53.741,45.811,10.261,-25.342,-41.997,-19.477,-19.038,4.796
208.24789,27.86,33.338,63.144,-208.731,-6.492,17.636,18.643,53.241,-6.215,-7.861,-7.601,4.349
208.5971,33.64,110.457,-29.548,100.5,-42.497,-16.933,7.364,-24.198,-3.146,-14.621,-33.494,9.407
209.03678,31.104,168.899,12.506,-16.459,-69.89,-28.38,-47.43,-38.888,-24.069,19.824,-8.075,-32.875
209.10159,31.957,45.141,13.948,0.841,-5.015,-20.126,-31.77,-38.791,-1.77,16.614,-21.453,-13.17
209.26435,36.128,136.112,56.947,7.73,-20.907,59.263,4.85,12.156,-8.743,-44.506,-33.133,-8.49
209.60068,33.846,96.74,-11.575,40.781,-34.54,23.622,25.556,-2.062,-6.415,-9.601,-26.547,2.925
209.90762,27.786,-34.885,-26.532,17.469,-12.38,-22.038,-13.163,4.157,5.007,-5.599,-34.102,0.301
210.3015,36.609,160.881,48.47,-15.075,-14.932,87.801,45.759,7.48,-6.595,-30.348,38.033,-25.144
210.6629,36.293,165.196,3.551,107.818,-24.693,-13.311,18.726,-27.699,-13.871,35.114,-48.385,-3.744
211.10444,25.581,62.026,-1.355,-28.261,-58.999,-38.108,11.35,-9.01,-9.266,-5.606,-13.826,0.379
211.2468,35.345,69.318,99.758,-159.001,-6.651,12.171,-1.796,93.842,-9.669,-26.329,-5.016,-11.911
211.53973,34.536,104.233,31.882,83.802,-28.598,-13.923,15.071,-17.811,-29.677,-15.75,-50.768,3.364
212.10091,27.074,85.76,22.458,-116.5,-54.286,-11.459,-22.554,32.034,-3.145,16.474,-21.523,-4.621
212.5263,24.622,136.412,-46.995,-1.256,-58.5,-19.491,-54.061,-28.899,22.702,9.584,-22.606,3.525
212.80993,21.48,-7.072,-63.674,-15.177,-7.726,-26.336,-16.078,21.67,34.855,24.597,-24.233,-2.798
213.32454,19.594,-0.987,-43.617,-25.286,-21.508,-10.883,3.226,25.328,13.213,22.195,-19.319,16.965
213.67043,23.328,93.334,-46.583,-160.308,-21.565,35.049,-28.46,65.794,37.463,-29.089,-61.389,17.117
214.89392,17.08,34.693,-83.819,-63.745,-41.722,-29.254,-32.364,7.73,29.517,13.816,-5.572,11.961
215.44236,16.849,36.043,-61.157,-50.074,-38.08,-24.392,-17.07,4.187,17.302,23.991,-23.532,12.706
215.85819,16.376,46.4,-68.329,-67.671,-33.227,-36.628,-30.949,0.583,32.278,17.132,-3.83,21.303
215.9917,17.588,7.385,-115.733,-68.552,-39.616,-46.075,-43.644,-10.392,44.91,12.114,-14.902,4.078
216.23769,16.666,-13.905,-106.619,-83.095,-31.824,-35.816,-37.0,8.65,32.463,8.612,-3.429,-2.359
216.61506,15.316,-32.481,-79.199,-78.128,-1.993,-33.987,-37.636,-1.443,4.818,-6.973,-5.584,1.253
216.91542,15.681,-19.864,-79.677,-59.958,-9.293,-45.71,-47.932,10.433,11.282,-2.643,2.972,5.39
217.04458,15.231,-19.942,-100.435,-46.045,-28.23,-44.334,-15.984,10.971,7.353,7.904,-12.809,0.516
217.8785,13.011,4.659,-82.375,-60.335,-14.865,-47.429,-22.416,-0.917,4.584,-3.448,-6.836,5.68
218.0581,13.444,31.82,-72.992,-69.121,-28.59,-35.569,-16.747,-12.922,15.227,8.803,-8.222,10.443
218.18576,14.383,-26.267,-109.249,-68.75,-25.187,-60.908,-22.75,1.425,5.661,0.37,-7.016,-8.374
218.81107,14.358,-4.719,-87.232,-61.253,-16.519,-42.089,-35.635,-0.777,10.717,4.086,-3.604,3.885
218.95583,14.265,-22.579,-100.42,-60.887,-14.949,-38.672,-27.716,16.878,6.345,-1.18,-9.004,-2.346
219.90449,11.489,0.935,-79.58,-85.033,-9.968,-38.777,-9.686,3.003,-23.776,4.48,-5.487,-8.013
220.04776,12.726,6.642,-80.036,-49.15,-21.654,-54.384,-23.682,14.892,-5.184,-7.866,-1.095,-2.545
220.15569,13.507,8.181,-78.819,-68.158,-19.908,-43.233,-32.739,3.134,2.194,3.008,-2.325,3.286
220.45383,14.314,-6.791,-93.471,-73.117,-20.93,-40.989,-15.912,-12.641,9.763,10.561,-7.609,7.599
220.70231,17.982,-49.469,-34.69,-55.939,-9.441,-26.931,27.841,4.848,-16.538,-2.762,-5.338,6.057
220.97116,19.601,-62.665,-23.576,-46.171,-2.783,-33.672,19.713,-10.562,-16.254,-2.352,3.46,15.544
221.98268,22.642,-71.704,17.135,-34.344,-11.978,-32.619,27.206,11.947,-18.114,-2.953,6.737,16.042
222.47596,24.44,-78.846,41.938,-21.318,2.795,-33.713,29.978,11.315,-19.963,-6.445,0.987,10.649
222.70286,25.527,-66.499,20.564,-9.036,-11.223,-29.686,24.392,-12.913,-8.244,-3.5,-7.491,18.393
222.96934,25.25,-74.278,-6.48,-3.711,-15.298,-23.612,20.385,0.753,2.175,-15.344,-12.049,3.786
223.44109,23.446,-88.799,-18.923,-16.834,-10.661,-39.539,-2.267,0.07,-7.716,0.489,-6.155,18.147
223.93324,20.621,-99.72,-40.359,-45.131,-12.792,-35.778,16.21,15.517,-35.271,0.486,-2.599,5.853
224.30907,19.433,-80.081,-45.693,-19.768,5.11,-40.354,2.777,16.216,-15.241,-6.232,-17.523,8.239
225.05342,15.002,-66.493,-121.605,-59.632,1.522,-45.472,-20.598,10.694,1.384,3.61,-5.874,-7.2
225.46735,14.245,-58.925,-126.747,-66.369,3.322,-35.737,-21.794,14.975,4.151,-0.559,-12.795,-9.973
225.68921,14.031,-81.471,-129.58,-76.524,24.72,-62.835,-24.204,9.104,2.475,-7.084,-7.514,-10.543
225.89011,13.773,-50.905,-110.861,-73.101,10.254,-51.823,-26.989,4.529,-0.735,6.466,2.342,-4.36
226.25692,15.168,-44.466,-116.439,-63.854,-16.268,-50.377,-20.557,18.282,12.512,-4.503,-5.68,-2.029
226.9902,14.521,-36.489,-95.154,-59.452,-2.199,-45.681,-38.029,14.354,-0.163,0.064,0.093,-3.967
227.40726,14.731,-39.919,-125.352,-75.711,-18.405,-40.352,-23.738,18.092,16.515,13.104,-3.577,-10.665
227.63029,14.428,-13.202,-112.521,-75.373,-23.216,-42.169,-30.159,-4.188,21.456,15.956,-6.938,-2.285
228.03615,14.494,-14.886,-102.368,-70.539,-16.428,-40.698,-30.093,-0.618,12.716,16.842,-12.4,4.967
228.56503,14.793,-19.343,-115.038,-71.53,-22.981,-33.259,-27.376,13.352,15.65,25.195,-9.127,-1.346
229.18122,12.622,10.554,-91.286,-53.663,-16.531,-35.352,-12.875,-7.441,5.602,6.695,-16.578,8.262
229.77338,13.593,-17.676,-120.739,-77.345,-16.548,-15.785,-17.029,-32.586,4.265,27.581,-28.564,-5.3
229.93175,13.989,-39.304,-127.846,-78.4,-8.734,-41.876,-22.424,-3.819,19.85,1.981,-1.294,-11.202
230.3458,13.686,-53.95,-99.374,-62.986,10.414,-57.917,-23.981,13.088,-15.232,-13.662,0.089,-15.114
230.43066,14.071,-47.097,-98.771,-74.404,-7.342,-44.217,-15.682,10.897,-17.194,-1.615,-7.177,-17.333
230.85465,13.471,-23.932,-76.43,-63.73,-6.908,-42.847,-13.115,15.284,-16.094,1.637,0.048,-10.116
231.01642,13.866,-47.745,-105.543,-76.899,-11.07,-42.695,1.058,15.813,-17.628,11.128,-7.715,-20.228
231.34853,13.681,-8.058,-74.761,-60.535,-26.271,-40.94,0.441,0.701,-15.527,2.113,-5.627,-7.67
231.96136,14.399,-15.966,-74.25,-67.52,-19.742,-38.38,-6.789,-4.056,-11.071,0.251,-5.006,-0.805
232.17896,15.3,-46.776,-102.452,-63.104,-23.371,-47.699,-11.864,13.682,-7.899,1.989,-3.049,-16.684
232.85315,14.571,-25.696,-87.818,-57.067,-18.862,-43.419,-11.66,1.426,-13.046,10.139,-10.557,-3.877
233.15356,14.363,-24.181,-81.379,-59.528,-23.295,-43.623,-11.7,7.847,-18.436,5.122,-1.527,-11.749
233.31846,15.187,-60.813,-111.26,-62.365,-22.808,-44.548,-6.323,15.308,-22.231,10.11,-2.55,-23.374
233.48839,13.451,-25.187,-107.46,-39.321,-23.021,-49.595,-13.081,33.709,-12.285,-8.363,-10.187,-17.368
234.46971,10.278,-26.847,-163.025,-38.706,8.884,-63.606,-23.896,54.243,4.249,-2.421,-6.342,-17.225
235.60172,7.415,11.128,-148.401,-66.225,19.818,-26.402,-5.742,40.804,-16.767,39.039,-4.396,-12.354
236.77274,8.123,-3.326,-158.344,-60.167,20.401,-33.703,-10.283,50.695,-11.13,32.095,0.47,-14.5
237.92181,7.369,12.148,-148.112,-66.667,19.908,-22.027,-4.762,41.62,-18.714,43.022,-6.126,-11.044
239.18372,9.488,-27.42,-161.222,-80.155,20.573,-48.342,-11.324,31.17,-0.561,21.263,4.03,-18.114
239.84068,9.322,52.203,-70.718,-76.103,-10.281,-43.268,-0.876,2.222,15.603,15.788,-5.248,-4.451
240.30249,12.051,34.787,-48.208,-69.796,-9.024,-31.98,4.488,-14.506,11.855,23.274,-9.799,2.647
240.95134,13.316,33.659,-46.699,-54.251,-22.514,-38.773,0.345,-0.018,17.302,5.635,-10.088,-5.107
241.27995,14.227,44.738,-42.857,-47.841,-27.13,-46.692,-2.882,-2.346,24.983,13.792,1.669,-1.819
241.58671,14.924,34.379,-45.232,-48.064,-29.293,-41.883,-2.541,-2.573,21.021,19.328,-13.284,-0.818
242.44526,14.355,40.32,-30.992,-27.287,-17.094,-53.707,-11.471,1.635,11.723,8.985,-6.543,1.137
242.73265,13.245,38.326,-43.273,-41.213,-35.303,-37.517,2.368,3.547,-1.825,0.89,-17.024,-10.227
242.89025,15.141,3.836,-79.928,-62.232,-48.639,-29.133,-16.345,18.401,-2.885,-1.548,2.518,-15.012
243.23265,13.691,32.816,-71.655,-37.648,-37.092,-33.768,-13.818,9.063,6.764,7.991,-24.055,-4.754
243.39728,10.176,42.376,-87.13,-30.598,-22.329,-39.892,-13.886,28.533,-0.639,2.199,-17.537,-10.209
244.04154,6.791,66.073,-112.826,-45.865,-8.65,-31.017,-10.3,9.76,-6.772,27.407,-22.014,-1.935
245.19946,6.297,35.304,-137.244,-58.53,14.931,-33.405,-4.156,44.227,-19.01,30.093,-2.111,-13.213
246.37873,6.217,37.589,-135.272,-54.948,15.919,-32.434,-2.408,47.513,-18.578,31.19,2.796,-13.318
247.62286,7.599,7.744,-153.246,-55.065,16.857,-51.274,-13.723,51.188,-5.951,9.604,1.289,-17.714
248.81664,7.696,9.092,-144.198,-78.633,17.003,-35.708,-6.838,27.517,-12.687,35.046,2.742,-17.229
249.49016,7.797,67.006,-59.735,-55.62,-5.152,-48.982,6.743,2.014,0.274,3.326,-13.284,-15.709
249.73156,9.547,81.43,-42.173,-60.125,-23.376,-35.655,2.853,-6.629,12.956,16.134,-8.956,-7.349
249.97805,13.431,22.096,-85.019,-64.503,-31.337,-21.598,-13.327,-9.483,11.011,30.504,-5.15,-6.043
250.26812,13.725,49.723,-53.883,-63.519,-35.945,-34.62,-17.043,-2.539,13.947,14.498,7.962,-3.861
251.01342,12.87,64.502,-13.181,-24.112,-17.98,-26.627,-20.869,-2.693,-2.348,-2.607,-3.492,-12.251
251.13873,13.453,71.62,-8.927,-42.3,-21.521,-20.68,-21.15,-7.415,6.122,-2.827,-6.256,-0.474
251.28667,14.915,41.012,-41.971,-59.975,-43.126,-31.822,-20.526,5.503,-3.658,20.211,5.034,-10.475
251.91914,14.874,86.731,-39.476,-32.714,-47.417,-41.259,-25.753,-5.294,7.337,31.239,-13.207,-5.748
252.04698,14.239,94.645,-39.194,-27.113,-44.428,-28.948,-22.16,-9.483,16.532,13.847,-18.593,0.651
252.56444,12.905,37.027,-93.837,-46.397,-38.159,-43.254,-37.283,46.682,23.228,14.219,-3.887,-11.493
253.75542,6.893,74.44,-107.855,-47.702,-13.554,-28.894,-20.731,10.758,-2.946,33.581,-32.092,-4.395
254.95587,6.401,33.388,-138.011,-59.949,13.66,-35.889,-4.57,41.571,-19.872,26.415,-1.891,-11.955
255.83651,2.678,116.151,-72.256,-52.199,9.848,-55.496,25.16,16.026,-25.262,-2.513,-7.948,-1.665
256.23859,6.631,29.268,-142.372,-44.084,14.605,-53.545,-10.537,59.837,-7.234,4.889,4.366,-18.294
257.56404,7.071,18.959,-146.515,-53.016,16.777,-48.423,-12.311,51.759,-8.59,11.671,0.533,-17.946
258.76703,8.412,-6.993,-145.769,-90.297,19.868,-28.408,-0.965,12.576,-18.778,41.253,-4.54,-15.716
259.20249,8.089,32.687,-90.813,-78.509,-4.366,-39.325,7.849,10.654,-26.982,2.752,-13.299,-23.745
259.43537,8.56,53.592,-44.381,-59.149,-0.763,-39.754,14.846,5.58,-18.043,8.547,-10.431,-24.902
259.67365,8.906,52.617,-26.835,-24.208,13.916,-49.931,7.752,16.311,-15.773,1.233,-11.45,-32.24
259.84893,8.728,53.268,-12.387,-23.014,31.59,-49.793,7.004,15.371,-18.256,7.4,-6.772,-26.867
260.02299,12.084,-15.876,-91.362,-64.687,-4.284,-36.443,13.689,15.294,-16.798,23.918,-0.569,-17.117
260.40875,11.31,8.854,-63.608,-43.288,1.332,-42.403,17.76,22.531,-7.476,7.823,-11.635,-14.366
260.54082,10.789,38.575,-32.531,-59.008,-2.037,-36.599,11.766,3.205,-13.041,12.362,-8.759,-20.377
260.92095,12.02,44.562,20.24,-32.281,34.687,-45.162,-8.905,11.829,-7.808,12.808,-2.508,-23.479
261.22494,14.294,17.849,-77.241,-60.158,-30.833,-36.241,-9.965,9.696,-0.161,9.663,-4.763,-14.945
261.67156,13.603,47.855,-18.521,-22.971,6.925,-32.897,-2.885,11.445,11.585,-1.851,-11.116,-15.309
262.42104,12.778,-0.881,-50.299,-54.527,1.929,-30.022,-7.42,-5.641,-20.936,28.401,-16.687,-25.708
262.64245,13.789,-37.621,-76.356,-70.585,21.993,-49.449,3.494,-7.448,0.049,16.934,-3.838,-17.72
262.76086,15.688,-76.302,-36.18,-58.269,63.096,-51.183,-7.587,-11.637,-4.481,8.434,-4.243,-27.614
263.08141,18.185,-114.641,16.826,-50.314,98.427,-41.439,-20.528,-11.814,-25.798,-0.468,2.809,-28.064
263.24503,19.442,-134.338,19.051,-11.139,110.1,-37.32,-43.402,20.623,-31.032,-4.94,-17.894,-22.809
263.72644,16.263,-81.213,1.317,-54.517,75.156,-50.488,5.173,-0.805,-23.144,12.91,7.572,-22.192
264.09823,20.558,-53.82,72.25,-13.551,23.508,-53.353,91.644,16.232,5.956,6.519,-1.786,-18.486
264.42259,22.619,-9.733,135.913,28.925,37.708,-52.678,103.82,23.055,23.729,18.952,-7.745,-24.721
264.64354,24.89,19.256,176.102,30.692,53.95,-36.475,102.573,16.011,22.647,27.513,-10.894,-30.68
264.72476,27.879,42.861,215.64,23.546,81.185,-43.746,101.583,24.944,30.664,14.109,-3.61,-35.349
264.90517,30.472,61.43,205.231,78.766,96.367,-34.698,76.491,10.887,22.53,14.464,-29.229,-22.979
265.07905,28.063,-51.404,89.881,38.951,15.4,-52.386,89.087,16.538,11.305,13.072,-9.18,-5.504
265.18971,28.14,-48.024,108.401,-0.93,18.963,-45.885,103.527,24.386,16.983,11.909,-6.117,-4.224
265.33397,29.686,2.895,137.887,55.434,38.99,-26.26,92.988,27.464,18.087,1.512,-39.468,-11.06
266.27447,21.331,-51.827,134.448,31.2,108.251,-27.857,20.105,19.131,20.596,10.337,-34.282,-38.906
266.54172,19.827,-74.955,-10.614,-24.388,15.074,-56.884,51.118,17.368,20.257,12.693,-3.451,-18.065
266.95442,20.029,-64.69,56.194,-7.267,32.624,-49.245,77.092,15.356,6.483,18.803,-18.926,-39.669
267.10476,20.587,-36.03,99.053,5.766,48.997,-43.103,62.746,17.771,16.323,13.244,-9.187,-42.915
267.75515,19.106,-35.484,-13.897,52.584,25.668,-51.002,20.342,54.164,22.273,5.326,-26.406,-19.575
269.13011,12.292,-29.932,-90.943,-57.933,6.889,-39.601,20.883,10.268,-26.434,22.724,-7.114,-4.139
269.31116,12.968,-27.726,-64.172,-67.888,-6.066,-43.254,51.516,15.75,-41.414,-6.313,-1.197,19.401
269.49283,16.301,3.458,43.183,-53.336,-32.175,-40.391,95.687,14.858,-46.378,-5.75,19.282,36.014
269.71129,21.331,44.104,137.985,12.293,-18.685,-34.956,117.499,17.753,-24.679,-7.474,5.081,36.957
269.91483,23.268,77.478,156.099,32.736,-13.497,-32.021,103.448,23.234,-15.728,-5.109,-2.114,31.722
270.07088,24.763,81.309,189.206,27.445,5.31,-33.738,106.27,8.98,-22.461,5.628,2.466,26.475
270.19351,27.52,80.738,206.263,52.79,20.448,-37.348,111.595,21.111,-30.03,4.457,-2.344,27.55
270.27995,29.637,94.561,217.125,70.234,23.498,-19.741,116.718,8.439,-21.85,-4.336,-40.183,34.371
270.60481,28.689,6.015,118.957,22.495,-10.352,-42.821,108.644,20.93,-0.252,6.011,-1.16,15.995
270.6751,30.263,27.638,120.812,13.965,-6.384,-43.295,114.893,24.484,1.617,-0.32,-4.876,16.674
270.77927,31.403,61.84,161.692,59.091,7.944,-21.758,114.425,27.922,7.781,4.02,-28.556,6.697
271.40617,22.48,15.099,150.782,42.019,35.152,-28.698,65.26,9.355,3.236,14.346,-14.585,-11.389
271.55737,22.615,-13.968,146.499,42.388,71.187,-30.519,29.313,-4.399,18.086,24.77,-17.192,-48.331
271.6795,24.897,-42.441,172.087,26.648,112.128,-7.658,22.018,12.899,21.569,17.783,-26.414,-40.241
271.94644,22.497,-57.087,62.569,20.11,33.345,-47.592,59.837,31.325,23.19,21.026,-13.6,-33.788
273.27034,17.395,-26.324,-25.649,67.651,25.307,-50.387,19.403,71.457,25.386,9.49,-30.664,-19.197
274.66621,12.801,-49.361,-77.31,-86.887,37.833,-18.254,13.04,-13.07,-25.074,48.948,-4.962,-17.731
274.90186,15.751,-80.912,-30.997,-60.565,45.927,-55.45,49.213,-0.442,-17.433,2.045,-3.505,-22.449
275.09293,19.194,-82.106,52.935,-41.437,55.386,-50.935,59.173,-1.295,-9.591,9.993,-0.644,-27.769
275.47546,22.467,-44.668,127.81,22.473,61.944,-45.35,55.884,-1.449,11.139,2.751,-0.05,-32.589
275.61492,25.703,-84.322,102.22,-1.359,57.282,-40.355,22.962,10.148,5.622,-0.82,6.078,-1.58
275.69079,27.83,-40.275,135.598,5.294,78.624,-17.428,31.403,11.226,19.34,-9.632,-14.253,-7.314
276.07306,25.555,-109.172,49.202,-16.11,29.034,-46.665,40.543,15.084,2.519,2.891,12.004,-3.684
276.48535,29.402,-75.144,98.289,7.116,29.194,-27.903,38.694,8.408,-3.198,2.15,13.584,6.132
276.56667,29.671,-41.572,107.927,40.48,40.906,-29.322,40.501,26.314,4.4,-10.026,-23.075,2.091
276.90993,23.907,-103.569,67.959,7.369,46.583,-18.605,19.682,3.533,-18.324,16.08,-14.041,3.253
277.14698,24.519,-101.492,91.708,-20.746,79.051,-23.453,9.069,-0.854,7.494,5.929,-14.232,-13.148
277.54812,26.075,-117.329,63.872,-18.888,43.764,-43.686,40.529,8.565,21.525,1.83,-1.797,-25.638
277.69392,27.469,-65.138,91.574,16.188,41.748,-44.641,43.501,10.619,4.323,9.656,-14.445,-32.552
277.83805,28.911,-74.812,66.133,17.082,57.304,-16.068,26.352,5.547,-10.275,-20.651,-1.116,-20.173
278.03052,26.641,-79.709,81.908,32.888,71.395,-40.228,20.496,6.734,-5.603,1.142,-10.055,-21.911
278.2098,24.581,-106.761,68.007,-0.992,64.759,-46.211,5.057,17.482,-10.444,-7.455,-8.818,-10.107
278.41202,22.772,-79.074,29.253,18.348,71.646,-33.566,7.811,18.523,-20.695,-12.668,-5.034,-10.189
278.6971,21.155,-78.301,-36.261,-25.46,20.502,-47.545,-2.101,22.726,-43.419,-7.438,9.904,1.137
279.14522,19.599,-73.388,-20.205,-26.324,20.628,-49.224,-25.03,26.613,-33.723,-15.191,1.126,13.11
279.57433,18.822,-67.547,-19.34,-20.145,34.55,-33.231,-26.763,9.72,-42.729,-12.016,13.343,11.148
280.02086,18.323,-109.443,-55.656,-42.735,28.821,-54.535,-13.759,5.078,-28.692,-5.734,-0.152,-8.841
280.36512,19.542,-114.16,13.021,-64.808,61.212,-51.965,30.602,-6.387,-10.011,-1.128,7.21,-24.428
280.7463,25.862,-101.924,115.64,-45.516,75.361,-41.221,23.557,-7.927,16.539,12.862,9.173,-26.784
281.03116,31.248,-71.573,130.531,11.126,85.988,-25.992,0.03,7.533,19.017,-8.785,-2.085,-20.399
281.31537,29.955,-114.572,73.902,-7.85,56.322,-53.605,19.552,1.081,16.213,28.181,3.267,-13.765
281.44898,31.984,-89.749,103.57,-9.313,62.949,-50.895,29.939,14.733,29.605,7.75,4.548,-30.075
281.73959,32.788,-59.771,110.186,18.906,59.127,-42.465,16.437,9.1,10.248,5.043,-3.415,-18.742
281.98277,29.285,-78.973,78.093,89.578,67.919,-49.07,-4.192,1.942,2.15,4.839,-19.537,-8.596
282.49374,22.293,-157.11,18.329,-2.793,92.493,-26.668,-32.946,21.073,-23.754,-8.88,-19.112,-10.54
282.8185,20.262,-135.619,-12.78,-50.947,59.436,-55.553,15.952,20.572,-16.303,-10.94,12.222,-14.698
283.05102,23.605,-96.24,70.374,-25.005,36.873,-35.404,44.841,2.349,-8.373,0.358,5.677,1.411
283.31819,27.358,-56.428,128.905,-15.624,49.614,-29.187,51.901,12.268,7.737,-6.709,14.61,1.264
283.50993,31.461,-67.462,125.971,12.826,41.429,-27.043,40.09,2.377,-8.266,11.768,6.632,5.745
283.62567,32.531,-45.188,115.77,27.608,46.756,-35.275,34.944,9.129,3.607,-11.733,-1.258,4.689
284.09565,31.652,-58.796,92.827,6.6,38.971,-45.213,56.873,10.209,22.101,7.946,-0.647,-22.29
284.27061,29.188,-51.941,77.712,87.165,45.251,-44.155,30.477,-5.528,4.46,-1.767,-49.647,-14.304
285.32041,18.875,-131.912,-58.338,-28.577,45.759,-62.076,-10.157,28.011,-27.38,-11.401,0.016,-9.115
285.73669,16.136,-100.367,-64.162,-49.666,54.883,-55.817,-24.825,21.454,-24.234,-11.828,4.104,-5.248
286.19687,15.836,-93.284,-57.908,-46.695,60.278,-52.548,-46.263,13.598,-22.72,-19.093,4.492,-2.99
286.62168,17.025,-111.661,-73.067,-60.245,52.259,-49.175,-29.772,11.26,-13.059,-0.671,11.915,-7.462
287.05066,18.347,-99.414,-13.844,-56.054,44.175,-44.253,19.82,6.758,-22.643,-3.773,9.449,-4.64
287.37546,21.248,-73.115,77.314,-11.987,40.336,-41.62,52.724,-1.82,-13.783,0.377,0.445,-0.902
287.52054,23.663,-112.514,48.677,-13.624,43.146,-52.335,7.052,9.033,-12.929,-17.75,9.634,15.542
287.73034,25.99,-39.847,112.84,-12.887,53.293,-31.247,35.2,10.244,4.461,-5.353,23.237,10.34
287.95646,28.499,-67.703,58.037,25.605,28.394,-48.434,35.199,-11.795,1.72,6.004,2.421,6.517
288.3459,27.562,-83.836,86.683,25.115,49.207,-35.201,36.7,16.747,12.972,5.16,-21.147,-11.52
289.08834,22.193,-104.565,24.712,27.248,52.861,-40.88,11.743,15.295,-9.942,-16.961,-15.606,1.338
289.89392,17.729,-99.425,-19.507,-25.365,66.928,-43.223,-0.086,12.062,-39.219,-14.409,1.494,1.084
290.12172,16.268,-92.802,-34.016,-28.243,62.667,-50.744,-20.22,21.858,-42.273,-15.51,6.811,9.818
290.57501,15.466,-89.453,-69.229,-55.124,51.192,-48.156,-26.31,14.455,-21.179,-6.511,5.703,-5.44
291.26658,14.202,-54.267,-37.228,-47.862,50.649,-45.338,-9.531,8.985,-28.437,-11.261,-3.064,1.547
291.4522,15.015,-72.901,-54.217,-43.875,61.936,-36.217,-35.356,9.903,-27.005,5.966,6.058,7.221
291.89161,15.306,-80.486,-63.139,-46.212,50.986,-37.906,-18.191,12.1,-24.803,16.611,0.634,0.642
292.32544,16.289,-90.431,-36.003,-66.53,55.913,-38.191,3.772,-0.223,-29.584,8.861,5.252,-3.723
292.79737,18.62,-103.807,10.618,-48.645,73.445,-41.199,9.091,4.847,-23.469,15.072,17.642,2.118
293.25637,22.566,-108.629,-0.9,-30.209,32.282,-29.284,-4.365,6.847,-11.716,14.801,11.71,3.995
293.45991,24.245,-101.734,44.642,-6.728,30.608,-32.968,46.347,11.983,4.199,4.371,0.09,-15.032
293.63896,24.667,-97.836,66.336,-17.521,33.934,-37.572,39.796,-10.44,-4.108,8.957,-6.407,-10.199
293.82576,25.894,-88.033,78.628,12.557,50.169,-49.017,21.167,12.888,11.173,-9.016,8.088,-8.068
294.10372,26.222,-91.259,84.75,-9.312,58.555,-35.0,22.397,-12.382,0.763,26.16,-5.632,3.674
294.2541,28.277,-77.985,106.865,-11.525,49.145,-39.525,18.44,11.913,-1.797,2.984,9.503,-3.549
294.55673,30.441,-44.206,138.294,4.481,56.544,-34.788,43.781,-3.793,2.725,13.045,-6.33,-17.675
295.0093,32.628,-52.308,118.057,14.973,63.483,-40.984,48.22,6.018,23.817,1.195,-5.55,-17.982
295.46249,30.368,-41.438,125.538,91.422,77.164,-33.037,35.392,12.343,15.119,1.115,-47.87,-19.307
296.47832,19.04,-78.225,59.203,11.397,64.508,-66.174,45.487,31.576,-7.184,-7.54,6.3,-15.821
296.84512,22.084,-45.975,125.225,-56.517,37.395,-34.171,94.938,2.174,1.587,12.837,7.76,-18.944
297.88834,25.506,9.827,138.707,38.948,35.131,-32.371,68.97,24.012,11.493,12.051,-19.476,-23.295
298.12109,26.273,7.721,144.757,11.351,28.072,-30.363,78.529,-3.256,8.339,10.796,-16.957,-23.839
298.35882,28.184,-27.559,148.408,52.611,67.543,-36.523,53.494,23.67,10.121,5.287,-2.682,-2.583
298.53306,27.164,-25.678,146.203,59.082,71.085,-39.095,59.035,26.83,11.455,10.915,-11.662,-0.714
298.73025,25.915,-33.965,130.197,10.496,38.327,-34.002,65.823,7.414,3.572,19.422,-13.444,-4.484
299.06712,25.006,-40.281,131.801,40.416,46.959,-36.42,59.81,20.514,10.54,-0.439,-8.952,-5.76
299.66517,23.733,-56.919,77.669,30.635,35.083,-39.977,40.704,19.632,-5.013,14.113,-1.938,5.453
300.12404,21.973,-57.334,73.099,27.23,30.331,-42.277,70.602,32.879,6.808,6.985,-6.413,-12.089
300.36766,18.987,-39.417,69.024,11.242,32.501,-39.453,73.339,30.262,-2.449,10.373,-4.452,-18.482
300.82091,17.482,-33.831,62.931,1.489,38.065,-37.756,81.215,20.023,-5.331,10.04,-10.988,-17.918
301.36594,16.884,-53.824,40.867,-2.05,54.304,-41.885,60.972,19.476,-17.615,7.719,-13.448,-8.492
301.8946,16.153,-60.938,6.851,-9.559,53.773,-46.219,31.198,27.458,-27.795,5.616,2.827,-1.492
302.37179,16.322,-85.728,-26.776,-37.986,63.323,-29.569,-6.146,18.358,-31.283,2.174,2.247,4.749
302.51138,15.427,-61.949,-10.914,-24.0,59.422,-45.244,14.356,27.538,-24.961,-4.388,-0.508,5.251
302.81764,15.514,-83.713,-49.984,-46.074,66.251,-41.155,-23.46,3.132,-24.511,5.222,-3.584,7.328
303.0317,13.863,-39.671,-43.87,-32.202,42.571,-52.515,-14.358,14.448,-19.927,-7.694,-1.255,-5.599
303.65061,11.744,-14.248,-38.888,-56.157,38.522,-36.906,23.858,8.388,-24.361,8.819,-13.169,-11.361
304.14694,11.752,-32.111,-58.522,-37.852,49.722,-57.08,14.732,24.637,-18.577,-5.379,-7.473,-20.958
304.80571,10.475,-5.096,-53.762,-46.4,55.022,-41.616,12.565,9.216,0.455,7.804,-14.466,-10.848
304.9834,10.244,2.956,-45.566,-55.032,52.585,-53.61,26.951,10.512,3.821,0.854,-1.733,-1.7
305.46413,10.847,-5.808,-34.041,-51.345,49.976,-46.193,1.908,-2.044,-22.841,1.043,-12.91,-19.881
305.74957,10.425,6.754,-46.212,-33.092,45.673,-45.524,11.323,3.332,-15.027,10.033,-13.925,-0.773
305.91524,11.547,-33.394,-67.36,-51.966,59.223,-28.967,-20.959,15.304,-28.212,10.415,-2.023,-5.871
306.39569,11.284,-43.162,-83.334,-50.95,67.172,-49.481,-37.285,23.569,-20.993,-4.613,4.966,-4.871
306.81973,11.068,-35.229,-90.156,-66.625,52.32,-36.025,-21.051,8.484,-23.433,14.266,-11.939,-4.788
307.25678,10.366,-11.793,-70.988,-63.301,51.37,-37.45,8.796,-0.154,-7.925,11.407,-13.383,2.357
308.20417,11.548,-19.93,-57.067,-36.917,53.361,-33.202,2.359,13.976,-9.424,16.808,-7.989,-14.892
308.55982,10.465,-7.103,-63.029,-57.829,38.399,-48.675,6.016,11.421,-12.136,5.247,-6.963,-18.592
309.06653,11.066,-13.953,-25.411,-35.3,75.671,-22.977,6.276,26.582,-19.785,19.649,-8.024,-11.128
309.48168,10.147,10.811,-46.854,-48.684,30.67,-48.133,7.023,0.857,-20.062,9.724,-15.772,-14.356
309.98975,10.535,-12.398,-69.248,-57.319,39.063,-52.998,-0.347,19.781,-18.87,-4.365,-5.608,-19.273
311.32893,9.245,20.972,-62.608,-57.171,27.306,-41.39,-5.178,0.082,-18.978,5.031,-10.557,-3.391
312.24975,10.265,-12.392,-66.696,-71.285,50.166,-33.587,-26.624,-13.948,-27.763,7.016,-15.551,-1.024
312.52317,10.859,-5.911,-56.342,-49.175,41.399,-48.714,-11.872,-1.138,-18.564,-2.458,-1.702,-5.559
312.73175,11.83,-36.018,-79.168,-49.241,47.749,-42.029,-26.111,20.152,-21.936,6.412,-0.071,-8.766
313.17365,12.017,-15.866,-45.939,-24.718,47.856,-48.375,1.978,13.829,-8.926,-1.597,-7.147,1.307
313.64073,10.583,3.319,-57.842,-31.207,27.128,-48.098,15.877,19.631,-14.462,2.081,-12.229,-12.629
313.91601,9.966,9.131,-54.875,-46.781,37.335,-41.844,4.454,14.025,-7.762,8.749,-9.659,-17.518
314.07823,10.029,9.815,-50.009,-36.922,40.038,-50.268,-12.832,19.291,-14.461,-1.647,-6.865,-19.644
314.31061,10.363,-0.187,-65.634,-51.86,27.46,-48.482,14.235,8.481,-14.064,7.248,-12.152,-9.99
314.50689,10.586,-8.864,-84.197,-49.431,29.464,-57.774,-11.435,17.683,-8.082,-2.573,-7.452,-18.675
315.41224,10.141,1.227,-75.676,-48.256,41.236,-53.352,-15.686,10.355,2.469,-5.035,-3.135,-15.514
316.26399,9.39,2.604,-63.351,-49.874,54.975,-47.303,-11.274,11.676,-15.749,7.773,-13.526,-9.004
316.77252,8.926,8.998,-66.545,-55.744,52.731,-50.594,-2.587,10.078,-13.272,4.566,-3.77,-6.294
317.23946,9.104,7.889,-57.867,-54.177,57.642,-43.553,-3.224,10.473,-14.12,2.584,-11.187,-7.841
317.68027,9.227,3.39,-50.324,-55.357,58.389,-41.76,-0.345,6.667,-27.496,10.312,-14.195,-14.273
318.29066,10.107,2.588,-74.345,-42.996,20.017,-63.491,8.182,10.077,-21.474,-4.051,-9.744,-17.279
318.72875,9.79,-3.569,-88.6,-50.721,24.381,-42.666,3.591,22.404,-23.487,4.089,-8.895,-20.858
319.76943,8.823,7.707,-69.394,-56.847,46.923,-56.0,-12.061,12.054,-14.221,-5.218,-6.529,-27.309
320.67293,7.884,31.509,-73.813,-46.809,23.89,-49.107,7.18,14.793,-24.826,2.167,-8.892,-13.308
322.68844,8.709,6.3,-94.569,-57.105,28.929,-53.378,3.413,12.909,-18.218,0.176,-5.698,-17.119
323.26413,8.974,-0.428,-94.676,-38.0,38.672,-63.272,-5.621,35.749,-14.681,-6.962,-4.213,-23.794
330.69669,7.035,26.864,-108.328,-25.897,38.309,-53.518,-13.126,59.918,-13.283,2.79,2.169,-9.381
352.0098,3.375,111.191,-31.778,-36.136,44.694,-37.212,48.449,20.574,-15.798,21.644,-22.387,0.273
352.31805,5.745,98.92,17.999,-29.259,43.239,-36.592,64.843,15.919,-31.007,13.763,-14.989,4.733
352.54834,8.47,102.11,63.757,-44.407,22.529,-36.14,60.937,-15.421,-38.118,-0.407,-5.296,-1.518
352.74009,12.982,87.072,101.202,-5.458,25.828,-47.798,52.09,18.914,-28.81,3.036,-1.681,-13.297
353.01868,18.216,132.953,130.864,-18.256,22.085,-9.737,51.254,1.407,-20.997,3.832,7.125,-8.555
353.22789,23.321,132.244,132.353,30.483,35.727,-47.867,34.972,3.643,-12.819,10.243,-4.705,-2.113
353.42517,25.507,118.88,139.166,33.081,31.851,-25.778,21.046,5.674,-14.519,5.332,1.853,-20.608
353.51787,26.913,123.313,152.437,16.322,37.712,-25.533,30.661,7.207,-23.061,-7.495,-5.179,-13.799
353.80263,28.951,115.524,143.649,40.353,31.935,-21.092,16.955,-6.727,-21.163,-0.11,-6.279,2.508
353.91846,30.51,116.974,140.537,16.437,41.802,-18.891,21.846,-3.572,-16.522,-4.478,5.638,-3.662
354.36549,32.356,119.074,155.003,19.635,34.582,-25.823,14.697,-0.358,-28.306,-4.564,1.859,-2.545
354.56317,33.931,127.616,161.496,51.398,37.692,-36.958,19.089,2.082,-21.833,6.745,-9.704,-13.597
354.70227,33.569,112.123,152.623,30.724,32.018,-28.396,15.296,9.124,-19.79,-9.459,-3.797,-4.944
355.00395,34.828,120.536,157.756,33.401,39.749,-17.555,27.665,6.588,-23.327,-10.493,-7.283,-2.663
355.35814,35.662,120.488,145.679,33.027,41.278,-35.778,20.093,-8.555,-24.348,-1.703,-1.684,-7.825
355.85152,35.914,116.944,156.398,31.676,36.985,-31.012,17.177,0.729,-32.324,-2.198,-2.953,1.823
356.32163,36.907,97.871,133.754,22.087,19.009,-33.322,24.854,16.196,-30.108,-9.373,-2.717,-3.545
357.16336,37.099,101.398,146.457,17.57,22.625,-30.689,17.424,6.612,-25.624,-3.071,-2.707,-6.629
357.88313,37.557,102.061,142.836,28.637,6.433,-52.453,27.498,6.785,-25.755,-1.612,-14.247,-6.593
358.34762,36.838,114.202,140.132,32.626,18.89,-34.432,13.048,6.551,-20.668,-5.316,11.185,-3.552
358.42317,38.13,119.271,142.527,47.033,22.313,-11.937,21.197,-8.963,-19.297,-1.676,-3.902,-5.343
359.0093,37.523,101.829,140.44,33.39,27.437,-32.337,13.407,0.521,-29.159,-4.291,-0.017,-2.264
359.6366,37.783,109.292,147.628,32.874,17.687,-21.092,20.589,-0.243,-24.05,3.823,-0.099,-2.377
360.07206,37.827,105.769,140.189,39.729,20.317,-13.027,24.092,5.193,-26.6,-7.352,-4.529,-11.536
360.49578,38.495,111.811,128.966,47.736,20.552,-41.466,13.719,-6.145,-34.282,7.324,-4.415,-5.103
360.85592,37.221,105.515,152.302,26.365,28.829,-25.574,14.6,2.377,-24.606,2.998,-6.038,-1.712
361.1922,37.132,106.72,156.381,25.541,29.121,-23.182,17.633,15.249,-28.6,-7.042,0.139,-12.048
361.38367,36.494,109.287,155.686,24.291,26.695,-25.801,17.773,-0.896,-24.703,2.162,-6.317,-3.356
361.61605,36.559,106.518,165.233,30.259,31.96,-23.302,13.092,6.664,-35.44,-3.489,-0.489,-9.526
362.27782,36.889,109.724,159.488,35.803,28.77,-21.166,7.53,3.963,-27.981,0.701,-5.735,-5.699
362.63179,37.313,115.211,148.826,47.555,16.532,-34.892,-2.809,-2.106,-30.87,0.055,-0.432,-6.725
363.06136,36.696,79.112,102.46,22.608,-6.994,-45.401,31.292,11.81,-26.996,-1.771,-3.135,-7.839
363.24127,36.424,91.531,129.558,20.441,24.346,-37.771,23.861,-2.483,-25.821,9.93,-13.006,-0.992
363.45605,36.872,94.165,141.551,28.28,37.229,-41.639,15.932,-6.44,-33.5,0.189,1.928,-0.081
364.2054,37.706,95.505,143.518,29.034,34.118,-39.046,14.922,-2.184,-26.073,-1.642,3.089,-3.527
364.70998,38.092,73.006,107.971,17.32,9.761,-43.176,20.827,10.862,-18.529,-2.068,-3.87,-0.386
364.95914,37.871,93.738,129.477,35.854,22.807,-41.821,18.292,-2.52,-26.075,-1.088,-10.031,-1.0
365.08753,37.247,81.814,129.793,26.019,21.603,-26.377,34.447,10.731,-8.381,-2.705,-7.86,-9.467
365.23823,37.957,74.577,127.565,18.925,15.564,-29.663,27.384,16.446,-12.446,-2.631,-4.059,-8.414
365.6273,38.519,82.319,120.252,35.698,23.598,-42.533,14.944,-0.967,-14.703,7.291,-8.199,-11.321
365.96998,38.476,72.09,94.907,12.13,-4.042,-34.659,18.402,6.319,-29.696,-7.354,-3.064,-3.07
366.28295,37.736,91.436,128.709,17.482,10.799,-20.982,25.783,4.241,-18.219,-10.214,6.076,-7.067
367.06689,39.28,86.77,139.1,28.266,36.686,-30.505,32.811,4.75,-15.887,-2.798,-6.484,-9.442
367.22948,40.353,62.174,113.219,9.01,23.618,-29.861,42.499,8.358,-6.578,8.696,-4.876,-21.551
367.57751,41.476,69.911,133.909,14.446,40.607,-41.898,52.112,14.08,7.504,0.825,2.652,-20.025
367.74054,43.217,48.872,120.302,21.341,31.515,-53.668,39.259,9.6,3.445,4.728,-6.226,-15.171
367.90277,43.479,50.553,140.61,38.168,51.037,-37.14,29.244,10.35,1.811,16.027,-7.485,-25.49
368.15837,43.526,42.619,130.021,20.864,41.397,-39.074,44.43,10.535,7.635,7.275,1.646,-18.51
368.35515,45.361,48.137,143.935,19.967,49.251,-40.652,39.378,9.005,13.655,24.725,2.225,-15.991
368.57651,46.52,94.536,144.612,14.557,58.185,-37.702,42.531,17.86,19.578,10.87,-2.751,-3.824
368.80231,47.549,89.1,122.707,25.124,54.483,-46.555,40.027,4.508,19.455,14.893,0.406,-8.948
369.01188,48.351,111.417,130.232,27.731,67.114,-51.548,44.988,20.858,39.956,5.283,-2.501,-12.152
369.19773,48.626,135.104,124.225,22.972,61.523,-35.908,39.896,9.53,38.563,15.719,11.412,-4.706
369.34839,48.932,166.929,150.058,23.557,73.622,-39.606,30.951,5.361,44.143,27.426,-16.991,-11.784
369.60376,49.323,163.802,112.816,24.938,60.127,-43.746,12.912,6.427,45.167,13.302,-11.168,-8.045
370.01578,48.113,157.459,114.946,39.952,42.997,-25.286,9.269,-8.202,32.532,3.266,-11.419,-14.369
370.40499,45.61,135.524,125.541,25.879,38.896,-42.486,7.565,2.465,8.676,21.895,-2.865,-22.057
370.61927,45.26,117.634,119.584,15.325,43.239,-31.804,17.143,10.682,21.742,-13.908,-10.55,-29.294
370.78204,45.368,133.704,124.59,27.397,32.84,-33.626,16.619,0.847,21.025,12.573,-10.046,-20.704
371.22322,43.917,98.229,106.715,17.855,30.346,-52.82,19.263,17.356,25.545,-1.497,-1.85,-10.021
371.36857,43.607,98.885,126.509,43.751,34.781,-44.608,34.889,7.621,12.565,10.447,-11.84,-8.538
371.63551,43.215,92.716,105.767,4.747,13.171,-34.936,17.569,6.842,2.874,-3.186,-19.183,-13.271
371.94299,43.348,126.923,130.457,22.948,24.003,-19.568,10.626,-6.508,1.634,7.235,-5.905,-9.167
372.22739,43.656,119.916,100.754,42.424,4.241,-38.878,9.653,-13.777,0.433,-0.775,-9.899,-5.454
372.59329,44.484,183.822,131.656,4.871,46.876,-25.195,-2.045,9.399,20.337,2.459,-8.207,9.462
373.22585,43.687,191.698,117.629,38.721,51.338,-19.815,-2.195,-13.998,20.692,7.595,-5.119,1.271
373.38277,43.162,183.436,129.879,23.306,52.658,-41.247,-15.111,-2.907,12.193,17.793,-16.471,-3.219
373.522,42.084,138.93,120.705,55.472,25.289,-29.69,1.918,-34.149,0.384,13.236,-16.28,-6.672
373.85315,40.356,93.569,141.847,43.547,36.326,-42.554,21.862,9.895,-7.653,-4.65,-7.287,-10.305
374.13701,39.045,88.678,148.587,22.206,43.3,-29.364,20.783,7.645,-21.291,5.657,-0.896,-5.279
374.6078,40.042,104.809,146.485,41.42,32.359,-17.997,10.175,6.823,-14.763,-2.648,-4.39,-20.416
374.90354,39.764,102.781,147.009,29.809,26.497,-12.027,17.107,-1.351,-14.006,-7.465,-17.431,-23.708
375.06608,39.551,110.215,142.064,38.266,39.587,-41.713,17.837,1.134,-14.968,13.221,-9.233,-15.157
375.52467,38.434,113.305,132.778,24.085,25.155,-12.982,9.422,0.634,-20.874,-12.906,-9.633,-18.915
375.68717,38.566,94.466,135.166,37.165,32.767,-29.179,25.037,9.592,-23.744,2.393,-4.383,-1.305
375.8381,38.228,92.764,138.527,29.581,24.536,-23.511,22.231,10.044,-30.221,-4.738,-9.072,-4.296
376.03546,37.84,93.107,135.175,34.081,25.237,-43.133,22.785,4.262,-24.344,-4.689,-1.42,-2.259
376.12249,38.744,106.358,141.93,33.135,33.498,-33.738,21.775,2.969,-28.262,-7.74,-5.791,-10.932
376.3376,38.253,89.497,142.823,27.618,28.923,-49.559,24.264,7.323,-19.57,-16.416,-6.936,-8.086
376.47669,39.386,100.828,152.929,51.893,26.794,-7.296,21.626,4.511,-15.203,-10.329,-9.414,-17.864
376.63333,38.277,96.522,149.722,46.67,36.587,-62.657,21.115,3.741,-18.601,-7.165,-9.145,-8.593
376.82526,38.429,92.768,136.979,49.522,25.635,-31.33,17.723,5.02,-25.897,0.464,0.302,-14.295
377.14431,38.064,96.16,149.202,53.727,31.854,-39.933,14.625,5.077,-21.393,-0.7,-3.435,-8.247
377.44626,37.985,88.182,139.529,54.836,28.914,-23.861,19.885,11.446,-24.014,3.585,4.295,-18.14
377.80005,36.838,108.624,167.78,51.12,32.106,-45.813,19.324,2.24,-34.765,-5.987,-20.743,-7.49
377.99175,35.151,103.25,165.328,23.843,31.077,-24.909,21.113,-0.951,-31.316,-6.528,-1.297,-4.403
378.11937,35.997,113.981,160.597,61.699,44.723,-65.288,12.691,-7.532,-34.348,1.452,-15.552,-10.181
378.41556,35.537,101.542,162.378,63.938,36.007,-37.095,3.88,2.064,-30.205,0.134,-6.372,-15.762
378.76971,34.118,106.142,154.206,56.578,26.413,-50.469,9.163,-5.865,-27.893,0.221,-16.568,-0.673
379.08866,32.911,101.436,146.369,48.071,35.023,-29.216,4.82,-4.57,-28.287,1.033,5.002,-5.022
379.43719,31.404,108.068,159.669,57.994,25.174,-42.052,4.495,0.722,-32.7,3.458,0.261,-7.732
379.77955,30.001,103.318,166.94,34.54,22.169,-47.738,6.065,4.265,-28.199,-2.907,-11.72,-9.699
380.09311,30.215,93.9,152.911,44.143,21.365,-38.817,1.546,7.164,-29.442,-5.606,-4.466,-4.337
380.85351,27.856,107.34,155.183,41.475,30.815,-30.758,7.645,-8.217,-28.639,-3.83,0.174,-4.16
381.0341,27.087,92.638,143.886,40.233,28.156,-26.004,13.609,8.494,-33.7,-13.268,7.403,-1.912
381.19029,27.211,105.384,159.46,44.7,22.782,-54.733,1.766,-3.44,-29.478,1.544,-10.237,-6.444
381.53256,26.98,107.262,152.485,55.287,35.277,-39.435,3.915,0.813,-20.783,-0.35,9.633,-9.814
381.84621,26.205,102.383,145.43,49.089,37.564,-9.234,22.116,4.349,-16.599,-10.282,-18.439,-13.681
381.96249,25.8,98.91,160.449,28.438,38.274,-26.602,9.899,4.227,-29.493,-1.268,2.754,-14.27
382.18889,26.131,105.183,149.199,48.309,32.486,-12.31,9.875,7.679,-27.453,-15.674,-8.928,-9.81
382.52512,24.982,116.299,147.622,62.15,33.532,-31.781,1.608,-6.462,-25.031,-3.555,1.066,-1.017
383.16993,22.864,106.81,138.895,36.769,38.951,-27.324,14.297,-2.629,-29.31,-10.323,-4.848,-9.968
383.36132,22.424,88.868,146.076,38.9,36.296,-36.099,16.102,0.563,-29.086,-1.752,-9.401,-11.521
383.84907,21.864,89.001,132.154,45.334,25.897,-50.259,6.221,-4.989,-34.115,8.136,-1.644,-4.407
384.18553,21.235,102.469,161.12,45.921,29.492,-54.118,-1.214,-10.098,-33.858,2.117,-11.177,-2.421
384.47628,20.492,105.242,155.018,35.474,36.032,-6.202,7.154,-3.594,-21.864,-17.061,-2.246,-2.4
384.79519,20.0,97.765,151.837,28.345,35.353,-20.102,16.015,-6.929,-28.985,-15.21,-4.858,-6.957
385.16118,20.765,96.874,135.452,54.591,12.08,-56.557,-2.42,-6.151,-34.575,2.045,-2.1,-5.136
385.42812,19.829,91.076,131.215,41.143,26.81,-23.796,5.73,7.6,-35.274,-6.858,-1.696,-3.531
385.74744,18.372,101.803,145.0,43.63,30.36,-23.777,2.121,-4.534,-28.784,-6.292,6.302,-6.509
386.17098,18.376,107.828,139.631,53.342,37.826,-58.775,14.321,-8.702,-32.597,4.331,-14.35,-5.556
386.44975,17.218,93.656,131.752,47.124,26.323,-23.204,23.39,9.988,-27.472,-17.29,-8.67,-2.013
386.84463,14.991,106.836,131.342,41.65,30.018,-46.709,11.124,-2.942,-36.31,-1.699,-7.772,-2.241
386.92571,15.217,98.635,144.866,29.572,29.21,-13.932,12.827,3.299,-27.587,-4.741,-2.831,-9.189
387.10009,14.698,92.624,152.061,40.584,32.761,-24.723,8.546,7.622,-36.782,-13.17,-11.182,-8.919
387.45379,13.778,104.375,142.504,55.657,29.596,-22.983,3.646,3.953,-31.408,-9.872,2.139,-14.344
387.7556,12.162,107.43,138.43,31.429,34.083,-21.426,18.405,5.23,-33.318,-9.394,-5.336,-8.657
388.08653,7.027,127.23,57.54,97.789,45.317,-36.921,-2.933,60.855,-31.31,-14.246,-27.282,-8.349
